Unnamed: 0,Unnamed: 1
mybeaitufulhair,
,
,
Raman Shift / cm-1,INT
3200,-17.1976695753492
3199,-16.786900882696
3198,-16.57283647561
3197,10.0389306986899
3196,62.646504739991
3195,181.404127607872
3194,292.6748218346
3193,300.331316929784
3192,279.701715879388
3191,231.810621005635
3190,127.307834367537
3189,8.85862295366713
3188,-9.74073593302728
3187,-8.97482857346657
3186,-7.97991579483751
3185,14.7947414133386
3184,54.6152726879503
3183,65.5694377735974
3182,65.5925281201077
3181,65.6125645238605
3180,65.629552157335
3179,65.6434961897564
3178,65.6544017870822
3177,65.6622741120211
3176,65.6671183240124
3175,77.4102452228458
3174,147.224737917927
3173,200.831619269357
3172,202.012002943889
3171,222.329529287666
3170,258.826119225785
3169,294.371278796908
3168,314.021845459034
3167,250.064939594677
3166,197.109616466519
3165,194.403396111732
3164,193.15493256567
3163,190.565327537086
3162,163.483069102297
3161,122.809710257303
3160,57.1655235546545
3159,6.41084951434134
3158,4.61859717393379
3157,-25.2896129596081
3156,-90.0279601429557
3155,-66.1315832132757
3154,0.0617971655519512
3153,65.4061124231694
3152,85.7987209589362
3151,-61.522836159574
3150,-173.260121778902
3149,-205.367502390717
3148,-38.6728675230562
3147,260.480064884072
3146,221.483081256546
3145,114.880533221195
3144,310.764562195291
3143,433.024562320201
3142,210.277237352963
3141,90.1281444120025
3140,147.146705980858
3139,78.0327174875627
3138,-55.7636595510135
3137,-44.0111168204034
3136,5.60454174544411
3135,11.9526288349364
3134,19.5631665022218
3133,46.5726028470579
3132,74.3981613256553
3131,102.094031546324
3130,112.475313603189
3129,109.730060772419
3128,67.6525926234247
3127,19.8019410333542
3126,13.2855546699196
3125,13.6005198373945
3124,13.8171489171552
3123,33.4883586058522
3122,84.8792597043176
3121,108.701864817301
3120,109.009968405323
3119,126.411123742665
3118,147.151227832304
3117,130.79561995656
3116,109.239489261011
3115,106.370283278962
3114,105.94100250662
3113,105.361426883347
3112,104.998694580752
3111,105.029907797219
3110,120.721732025014
3109,147.957130606772
3108,153.870644219017
3107,148.906277632492
3106,126.171652586263
3105,104.44657335664
3104,101.678448990795
3103,107.135369676151
3102,128.904961763775
3101,107.826093054048
3100,16.7742785186377
3099,-14.8178724237023
3098,8.0087912026113
3097,30.4856265805404
3096,54.9844908391136
3095,110.672650345592
3094,169.160098141799
3093,178.050828065282
3092,177.17225393898
3091,176.388800735336
3090,169.50134969184
3089,147.899133268125
3088,134.199523873123
3087,133.275746160234
3086,132.593356052261
3085,131.985885261059
3084,131.474365407129
3083,131.865267737337
3082,146.777828760739
3081,164.625360700633
3080,166.946085824765
3079,159.98203308784
3078,123.16472564357
3077,78.1302419521377
3076,19.312290398161
3075,-8.9155656493823
3074,28.3415267625931
3073,58.6247268884188
3072,77.9166267803956
3071,76.6647598139336
3070,57.3644550255208
3069,62.1298315812801
3068,79.3031042124251
3067,70.6710054810564
3066,52.6355088509081
3065,48.5683388333086
3064,42.3149199259237
3063,-5.00003675092328
3062,-50.8631814371869
3061,-56.4681857423479
3060,-52.5806101773539
3059,-35.5550602967773
3058,-22.5305629641439
3057,-22.1291302332663
3056,-9.54867410217549
3055,25.8182099328932
3054,52.9976416035152
3053,69.7922484638516
3052,86.8562680952203
3051,103.840210744541
3050,120.056916556909
3049,137.14375215947
3048,176.829674960296
3047,223.256993508667
3046,234.350303863715
3045,231.813185020948
3044,217.480333988703
3043,201.91129406857
3042,198.246481682778
3041,194.594013036504
3040,179.059068035951
3039,162.038172936686
3038,144.693811854516
3037,135.175976690934
3036,148.612753932446
3035,167.61631408068
3034,197.717976752257
3033,217.486047170144
3032,216.932859388488
3031,198.335274422712
3030,152.025464864297
3029,138.244479793799
3028,167.991239915677
3027,234.268418072581
3026,335.811076536722
3025,333.101959967604
3024,243.937320774515
3023,377.715805419674
3022,646.178913288892
3021,656.400774251154
3020,524.569732838303
3019,402.68566312007
3018,292.728049083407
3017,362.078495088446
3016,490.33622958846
3015,458.141231606531
3014,374.033211179015
3013,321.111084629157
3012,277.172633751776
3011,233.734601894977
3010,197.855583890949
3009,212.902636103816
3008,236.480380723201
3007,239.372616273885
3006,236.543345623878
3005,223.536888614918
3004,208.788826969416
3003,194.106337302109
3002,179.560938267372
3001,165.347934316502
3000,155.391988607746
2999,164.792331391074
2998,172.246260885129
2997,160.562746711931
2996,155.529115135601
2995,187.977311565027
2994,213.089448664964
2993,191.781206155045
2992,174.802836273884
2991,194.084821148107
2990,212.259148087747
2989,212.536454881459
2988,211.076089343677
2987,209.786271943716
2986,210.930000789386
2985,221.200211411694
2984,227.56246602857
2983,216.018392471077
2982,205.249946830757
2981,203.558233113916
2980,202.669609143366
2979,201.52978881404
2978,195.915190198419
2977,173.233425485984
2976,155.569169152391
2975,163.680943644259
2974,163.783414042899
2973,121.360204073958
2972,82.8928320935193
2971,78.3208454419286
2970,77.4491738038834
2969,76.6039922067691
2968,79.434672473267
2967,98.7877601437747
2966,123.456945998695
2965,164.450692733061
2964,200.806868475283
2963,204.010114254643
2962,202.574467491573
2961,200.812417653946
2960,199.11727412629
2959,197.904754694556
2958,196.723697058873
2957,195.262223931728
2956,194.638374760341
2955,201.609675443379
2954,209.469137856168
2953,210.067854243636
2952,210.194305275189
2951,224.333187506399
2950,240.107717694945
2949,220.754200588457
2948,191.043191694778
2947,203.250814473164
2946,230.063793050766
2945,216.40085089574
2944,186.725167797494
2943,194.46519937204
2942,222.728594795564
2941,232.888969296265
2940,231.40893916509
2939,240.570774034691
2938,256.992509274766
2937,259.65430974627
2936,248.821837474245
2935,233.292861795854
2934,212.291422758936
2933,199.522509923602
2932,197.905688893904
2931,193.238843532347
2930,182.677790121005
2929,172.062988960986
2928,161.781722285316
2927,162.196106053968
2926,194.864343576287
2925,216.750061049842
2924,192.937541638001
2923,169.012207060742
2922,164.44798682252
2921,162.74034116331
2920,161.125328004937
2919,162.145878840103
2918,188.985010538399
2917,220.35620418236
2916,226.720250325238
2915,225.142892888642
2914,217.957138118926
2913,208.662784281682
2912,209.570805215296
2911,216.752684643104
2910,233.273926959888
2909,256.512502288629
2908,256.178237747222
2907,228.437046756112
2906,211.141881051067
2905,209.235606546605
2904,207.566719082615
2903,206.132102228732
2902,204.645289687457
2901,202.934164188585
2900,203.688734031538
2899,215.87054608028
2898,229.655411666649
2897,243.423582108367
2896,257.172397544973
2895,271.099571992039
2894,283.904042741686
2893,281.437602909612
2892,273.01177794359
2891,273.629194958858
2890,279.959831931427
2889,281.5435554351
2888,278.995669797794
2887,303.567942159453
2886,368.293995289485
2885,383.363094679458
2884,288.995143695735
2883,212.46073164295
2882,204.924404946375
2881,207.320056255764
2880,231.899011755011
2879,251.422948213456
2878,201.20739430034
2877,138.946135245931
2876,146.562920840733
2875,179.6358796581
2874,208.616778420206
2873,235.208780012848
2872,244.470633465942
2871,235.994148200258
2870,232.397044698533
2869,237.256716226768
2868,240.351221459499
2867,238.768010001241
2866,239.262009798226
2865,250.024736603934
2864,260.658855779678
2863,261.364954330366
2862,260.713931449806
2861,272.983381774405
2860,289.493719532555
2859,294.667438970949
2858,293.120094826682
2857,288.010915286959
2856,279.122663879293
2855,274.937672879847
2854,279.750593345106
2853,283.338248755365
2852,281.753120742033
2851,279.017978960553
2850,271.500837322781
2849,264.196977213613
2848,270.888822555329
2847,281.961031023739
2846,300.007211830494
2845,322.54373572113
2844,329.74701636267
2843,320.469083336108
2842,311.650539989772
2841,303.61180912572
2840,296.795159542348
2839,294.180929449816
2838,287.36026573252
2837,249.080269173688
2836,206.096225513405
2835,184.64745955463
2834,171.514168036836
2833,168.556823259427
2832,173.009584392363
2831,177.396017826902
2830,182.01850669557
2829,187.958620008122
2828,197.596281154151
2827,204.884566985313
2826,199.158411712626
2825,192.173511192983
2824,193.355422477952
2823,197.052404688473
2822,211.274446059288
2821,231.730122354755
2820,239.50211685213
2819,231.675734057686
2818,221.074059672913
2817,203.817226639292
2816,188.302248182526
2815,184.49560704823
2814,182.632788248748
2813,181.329777106577
2812,180.147000929232
2811,175.203550643478
2810,167.931934584582
2809,165.009895081647
2808,168.735254215918
2807,172.23965179586
2806,175.212735837582
2805,179.396821176449
2804,191.787334689155
2803,204.990883260562
2802,207.757910061375
2801,205.977613587232
2800,206.87913915414
2799,210.175419914373
2798,213.347078505381
2797,216.359131389751
2796,219.371395048707
2795,222.452606857575
2794,225.297972314487
2793,224.712234226464
2792,222.901006456732
2791,212.28792620968
2790,195.816539094997
2789,184.488098432778
2788,182.183555885919
2787,180.969730341099
2786,183.476525129566
2785,186.96068136407
2784,197.858170030895
2783,210.576658641174
2782,203.189894094967
2781,182.449820067468
2780,182.346691187403
2779,213.200281152646
2778,240.63987836171
2777,254.032042029084
2776,264.269285642171
2775,253.59565269462
2774,237.051198915098
2773,229.007846216315
2772,226.094536768157
2771,231.708420194127
2770,252.201146227381
2769,270.605551313961
2768,278.619704705005
2767,285.510719495955
2766,292.572314425957
2765,299.452254268875
2764,301.355014261599
2763,299.383442785125
2762,296.033748980773
2761,289.671828865293
2760,280.525395154273
2759,255.16419516857
2758,227.302942582533
2757,202.221641465667
2756,178.520529403201
2755,160.235370580035
2754,149.297992101648
2753,140.846528595071
2752,138.808386518003
2751,137.857811879875
2750,142.936241196365
2749,149.450684312507
2748,158.356823582356
2747,168.802233424573
2746,176.4475900613
2745,178.760747298352
2744,184.295667591945
2743,208.387211757276
2742,234.655302652032
2741,247.394202832826
2740,254.153185832155
2739,258.780293118334
2738,260.596834448025
2737,260.747347389772
2736,254.802073657256
2735,246.009567141641
2734,205.798237042358
2733,155.962348651126
2732,143.890823369507
2731,166.021759737212
2730,181.933078036243
2729,181.111724283516
2728,179.994186441136
2727,184.517407979771
2726,190.275940753238
2725,191.191912611814
2724,188.818512133999
2723,186.421623774353
2722,184.045786731513
2721,183.141969018022
2720,193.948198965096
2719,207.123281743475
2718,211.286375153206
2717,209.679803741215
2716,207.817364082078
2715,205.436225166049
2714,203.08498387612
2713,200.993368992746
2712,198.943628812362
2711,196.604577636372
2710,194.106028264142
2709,194.189404875612
2708,199.606928998392
2707,204.331550387478
2706,203.518935013363
2705,201.702007411114
2704,197.70391291196
2703,192.209738756519
2702,193.335038709341
2701,209.179452730635
2700,225.028900874629
2699,237.267895130222
2698,248.344241588843
2697,251.28036559771
2696,248.396975492203
2695,241.815624478586
2694,225.949138569014
2693,211.088208028504
2692,206.640623592956
2691,204.800449718936
2690,203.180541350843
2689,201.757354792778
2688,199.39566083523
2687,193.927843893725
2686,189.579738426524
2685,207.265309777561
2684,232.334151190488
2683,244.728151527763
2682,242.676878679251
2681,240.575051519439
2680,238.427302524552
2679,236.262810928142
2678,232.343096822426
2677,227.491989533697
2676,221.252908147216
2675,212.722505044997
2674,204.839738195908
2673,201.765879013953
2672,199.727445644241
2671,197.724705592054
2670,195.728458888784
2669,194.421100709246
2668,195.137294145985
2667,195.860695851371
2666,194.823122222776
2665,193.162468501823
2664,191.334596746506
2663,189.266875804118
2662,185.380966546932
2661,172.736035320311
2660,159.025200205098
2659,156.346411534564
2658,160.536377549241
2657,160.190010801869
2656,148.032967764165
2655,135.850120313092
2654,119.423629748663
2653,101.370969712473
2652,95.0976640953519
2651,102.591570203541
2650,110.615030778421
2649,119.902588701941
2648,129.438896355993
2647,147.060915905
2646,168.78215821924
2645,178.740526882023
2644,158.293652705306
2643,138.512729621377
2642,154.055562941651
2641,180.935306226482
2640,192.563408077832
2639,181.716675273558
2638,171.497102037996
2637,165.00036178079
2636,159.16682332324
2635,153.815645881309
2634,148.840637308593
2633,145.488153682473
2632,148.161334699676
2631,151.182993547852
2630,150.402666824889
2629,147.897142632529
2628,146.473295198978
2627,147.423383462941
2626,148.921638621542
2625,156.220293315909
2624,164.951858459102
2623,174.733944958093
2622,185.938996926519
2621,194.947700649365
2620,190.345292249635
2619,183.214431660586
2618,178.462381387564
2617,175.807730220336
2616,173.317251697808
2615,171.5095863645
2614,169.732181368288
2613,164.298813087821
2612,156.727069426674
2611,150.573575372015
2610,148.51536187551
2609,146.732955283143
2608,144.507990705161
2607,142.098194606855
2606,142.934176736977
2605,150.874821754933
2604,158.45358979539
2603,158.464025735037
2602,156.180444732459
2601,158.898080990952
2600,169.511877967738
2599,178.964043690358
2598,179.139645599183
2597,176.972808086836
2596,176.648856480264
2595,178.69834297241
2594,179.356829855471
2593,170.960752278998
2592,161.103508564216
2591,165.463082305109
2590,185.306983582479
2589,198.901093470515
2588,178.800925843375
2587,153.884832832417
2586,125.196302348648
2585,93.7752821169089
2584,67.0872907560922
2583,61.9266278141802
2582,59.773203169771
2581,64.4268090803885
2580,74.4459199751863
2579,79.7795365072255
2578,65.7758003704074
2577,49.9929272804384
2576,46.0598916848733
2575,50.7072582698321
2574,62.0464702925849
2573,103.615161411237
2572,148.01782634491
2571,164.321261594621
2570,162.376616720861
2569,158.983779937415
2568,149.925046210699
2567,140.234016635425
2566,140.325231598975
2565,146.824599677468
2564,151.860428866516
2563,150.324892741804
2562,148.079450544892
2561,147.046663285952
2560,146.893623384161
2559,146.260637081074
2558,143.626439270619
2557,140.741317688652
2556,142.574844462287
2555,147.919382398229
2554,151.371925770663
2553,145.004143344919
2552,137.434953883463
2551,133.862598427754
2550,133.948843584225
2549,133.926969192619
2548,133.303844985361
2547,132.589990614637
2546,130.929048324363
2545,128.224799171382
2544,125.647453021354
2543,123.618891413639
2542,121.677930966096
2541,120.44062301744
2540,120.096133217259
2539,120.10617418677
2538,123.903746447546
2537,128.641494066278
2536,134.405296183973
2535,142.079033006894
2534,149.486164381556
2533,153.146431961777
2532,155.482895223351
2531,156.954544090051
2530,156.741778278835
2529,156.3813140445
2528,153.526128164814
2527,149.44323999651
2526,145.896573563116
2525,143.993880866467
2524,142.150374954077
2523,136.325590188902
2522,127.975091403306
2521,121.368347972457
2520,123.308551767066
2519,126.227117968549
2518,132.355539935957
2517,141.443032196018
2516,149.766253814193
2515,152.615128892655
2514,154.378542150852
2513,154.631954664854
2512,152.712426037146
2511,150.742540581171
2510,148.257333746567
2509,145.618462884645
2508,143.246636179918
2507,141.522106583523
2506,139.814735108974
2505,137.338726905419
2504,134.468740355447
2503,134.684908981771
2502,146.324250352894
2501,158.999406642702
2500,163.835159336842
2499,161.857708631187
2498,159.880380491097
2497,157.887157743868
2496,155.892795711326
2495,153.907240305575
2494,151.934897067136
2493,149.971731930442
2492,148.146363349455
2491,146.376684112656
2490,143.60072683491
2489,137.488152982917
2488,131.025914570737
2487,126.699230936187
2486,123.890136532907
2485,121.174107601316
2484,118.927303793832
2483,116.756911347331
2482,112.97069194127
2481,106.964525897294
2480,101.401172497226
2479,102.144461623273
2478,104.95086245814
2477,106.605331589682
2476,105.057513233052
2475,103.278972927494
2474,96.8947414239846
2473,87.6271736081657
2472,79.6166804099427
2471,80.709044031275
2470,83.7249011096487
2469,85.5269968470082
2468,85.110165468757
2467,84.640819146742
2466,84.1510353317396
2465,83.6503223165501
2464,84.4500245541508
2463,90.4517400498163
2462,96.9669109312068
2461,100.573901933014
2460,101.217519221342
2459,101.89770317495
2458,102.95635048961
2457,104.105650330334
2456,104.743289789209
2455,104.232392319251
2454,103.718673425379
2453,108.987162693794
2452,118.36611044065
2451,127.19440491754
2450,132.521083193669
2449,137.169852592897
2448,139.535235953289
2447,137.894342337565
2446,136.149615380547
2445,132.980739131389
2444,129.055325941361
2443,125.815301233562
2442,126.029322388435
2441,126.720033185953
2440,126.319772286993
2439,124.43394705416
2438,122.529287411908
2437,120.316046773799
2436,117.981484696598
2435,115.717780300978
2434,113.728632840393
2433,111.793856421822
2432,108.455788377437
2431,103.159422039672
2430,97.8205567989446
2429,91.6533807941305
2428,85.3294644421362
2427,79.7985491086447
2426,77.4487965819541
2425,75.4749200063737
2424,73.4205192825046
2423,71.2978564557389
2422,68.8051137405998
2421,58.7226619284431
2420,45.7074461089769
2419,36.9694656174756
2418,44.1330952427418
2417,52.8526682773607
2416,61.5889815362853
2415,69.9911105380065
2414,78.5631029268699
2413,98.5306299685055
2412,123.742684323183
2411,141.57378632357
2410,127.834272983421
2409,110.347251131008
2408,98.6507662339626
2407,96.6370288686928
2406,94.9229728827847
2405,99.585485547425
2404,107.514434657222
2403,112.748109837183
2402,103.116999249798
2401,90.8571048374014
2400,82.0861179200684
2399,79.9419556172801
2398,77.9762382853894
2397,77.657504498045
2396,78.3631575240918
2395,79.3980457072215
2394,83.4663800579472
2393,88.0587441167306
2392,92.3272974444301
2391,95.8651235694249
2390,99.2073381920684
2389,100.138525799974
2388,98.6556393967162
2387,97.4586266354379
2386,101.148579678552
2385,106.693354288029
2384,110.407968547544
2383,106.810072818775
2382,102.343062751148
2381,98.4069917241929
2380,95.1607391763505
2379,91.8098433784732
2378,85.6954624772127
2377,78.0433256815347
2376,70.8739441155238
2375,67.6582404655955
2374,65.2570517905533
2373,63.0778168900585
2372,61.4179233847468
2371,59.7729390685962
2370,57.9331818101689
2369,55.883547196701
2368,53.8562280150682
2367,52.2938804230951
2366,50.9163104996969
2365,49.306456813079
2364,46.3267087498672
2363,43.1851213360595
2362,40.5134142833199
2361,38.8388603369901
2360,37.2069966176603
2359,37.3768733077683
2358,39.110625747083
2357,40.9922916276756
2356,43.9382387909414
2355,47.2610581801435
2354,49.4348442766339
2353,46.0051232692447
2352,41.8922589425371
2351,38.2545277285703
2350,35.5479841863954
2349,32.8832848809043
2348,31.1926343315841
2347,30.3106439953847
2346,29.357807889842
2345,27.120486931114
2344,24.4398900860898
2343,21.6646902730131
2342,18.3645084148699
2341,14.9906509130903
2340,12.8313287624994
2339,13.4829930854495
2338,14.2299951839126
2337,13.4771889641626
2336,11.2645908118342
2335,9.45670241615497
2334,16.2836592215568
2333,26.7715978823518
2332,36.4266481371351
2331,40.568842675658
2330,43.7256446234374
2329,49.6353992457673
2328,63.1976278442217
2327,76.7960155357099
2326,77.5729224888033
2325,59.9627499394825
2324,42.398449510544
2323,34.7806473964062
2322,33.1638771703104
2321,31.2506715907254
2320,26.0166655993142
2319,19.7218149577234
2318,13.6161085751564
2317,8.40375613712589
2316,3.30440510531243
2315,-2.35609130221625
2314,-9.20278445030926
2313,-15.9204718046389
2312,-19.5405487741629
2311,-19.6963907973038
2310,-19.8915173099722
2309,-20.6839844488289
2308,-21.8002970314711
2307,-22.8853830587865
2306,-23.6869554926275
2305,-24.4284931642023
2304,-25.1999027970122
2303,-26.1375060104126
2302,-27.0998657402866
2301,-21.6739916029048
2300,-2.0470864518564
2299,17.5595751227784
2298,29.3737570718229
2297,31.4753037382936
2296,33.5086703325047
2295,39.1690737691625
2294,46.8606813739593
2293,53.8086985557528
2292,54.1148679549828
2291,52.3215303065955
2290,50.9009945757403
2289,51.5736442225193
2288,52.5685971089456
2287,52.9940811398761
2286,51.9176039930376
2285,50.7443578420094
2284,44.7781352127035
2283,30.9772760018893
2282,17.1389328533644
2281,7.36810351133532
2280,0.537581259038215
2279,-6.16407915550792
2278,-6.24485763217856
2277,-3.42163326408243
2276,-0.962179701325592
2275,-2.48375750698438
2274,-5.08952877684111
2273,-6.53585648431805
2272,-2.25732723425077
2271,2.98654549397862
2270,6.46329658177023
2269,4.94737813784204
2268,3.15635257018774
2267,4.04761755107563
2266,9.55177671901439
2265,14.9621058613303
2264,14.9020501194214
2263,9.36408126358672
2262,3.89406380571965
2261,1.47119139440762
2260,0.595733138194446
2259,0.15277693699879
2258,7.37195696461649
2257,17.1884449242912
2256,25.5658824031847
2255,26.0453187092511
2254,24.9574651856134
2253,23.6218594760737
2252,21.2485554934373
2251,18.7889537059667
2250,16.6835399234767
2249,15.5127566875254
2248,14.3916587974811
2247,13.1545365392084
2246,11.7175684764148
2245,10.2846430958025
2244,9.53131849708931
2243,9.47810968248871
2242,9.37760524381158
2241,2.73398829666835
2240,-8.29464123999414
2239,-18.723605434987
2238,-21.784704303823
2237,-21.8527545276868
2236,-22.0854690768015
2235,-24.2666694266243
2234,-27.0088216104017
2233,-29.9202344090702
2232,-33.6419637935101
2231,-37.438480916626
2230,-40.2802405883006
2229,-39.2118562909262
2228,-37.7264555012294
2227,-35.8704485211188
2226,-32.9008808373402
2225,-29.8616525324552
2224,-23.8620980280387
2223,-11.0855482561819
2222,1.89498359997113
2221,0.58901417838632
2220,-18.6503420054934
2219,-37.8948915609924
2218,-45.2682296423271
2217,-41.8095694782553
2216,-38.3369634021664
2215,-33.7679586192133
2214,-28.4741176554594
2213,-23.1437790484898
2212,-16.4679956013277
2211,-9.13387718848344
2210,-1.98369335585609
2209,1.9372369421911
2208,4.65904381033392
2207,7.0776777996276
2206,6.15462830564734
2205,4.30616433080392
2204,2.68944741162805
2203,2.82397404222733
2202,3.31975103805869
2201,3.29368034130424
2200,0.405312452322466
2199,-2.91660685772175
2198,-6.25099968502647
2197,-9.64097051548998
2196,-13.0351363891375
2195,-17.7605459880431
2194,-26.6785173891094
2193,-35.8829198887866
2192,-40.0664225963234
2191,-31.9884462430181
2190,-23.3819973323983
2189,-18.0577391247264
2188,-18.9751228460457
2187,-20.0444792984135
2186,-21.4555820810613
2185,-23.3757476430117
2184,-25.298629136855
2183,-24.7801244252576
2182,-21.4400706766107
2181,-18.1083777580525
2180,-17.3069495964382
2179,-18.7455721451191
2178,-20.1428430453368
2177,-16.1603992313498
2176,-8.44070783020917
2175,-1.02632267874184
2174,1.65420823352468
2173,1.38140335933226
2172,0.949173774610241
2171,-6.75957586704959
2170,-18.4079930356281
2169,-29.7801519870038
2168,-34.2918054527921
2167,-35.7817101611171
2166,-37.3159292613445
2165,-39.578129093203
2164,-42.115008468481
2163,-44.5484655821659
2162,-44.6092017159869
2161,-43.8226497272966
2160,-43.0531137620342
2159,-42.4787580245897
2158,-41.9681233304232
2157,-41.4913599705653
2156,-40.7966267467787
2155,-39.9894259770113
2154,-38.6851505046647
2153,-32.7165992095552
2152,-25.6406530296381
2151,-19.3249980716439
2150,-17.4045183984383
2149,-16.3916073075188
2148,-15.6647690074674
2147,-17.1286194188161
2146,-19.0479066887709
2145,-20.8755710260922
2144,-22.1960440626653
2143,-23.4230344039273
2142,-24.877053510631
2141,-27.8078622713257
2140,-30.9369328289332
2139,-33.8530607136396
2138,-35.4435758053666
2137,-36.7750643435077
2136,-36.7287918261998
2135,-29.0973134073011
2134,-20.2529614150126
2133,-13.2044988614397
2132,-18.5378083298303
2131,-25.7702892001904
2130,-31.4346586869773
2129,-27.1868329292748
2128,-21.1804865421038
2127,-16.4976838745526
2126,-18.8599654991176
2125,-22.298379898578
2124,-25.6683763297972
2123,-28.3203866333837
2122,-30.8077087561874
2121,-33.3275205336026
2120,-36.1446889265684
2119,-38.9507684808201
2118,-41.6909242653702
2117,-44.0831513127468
2116,-46.3921478026402
2115,-48.7303337804097
2114,-51.5664449623927
2113,-54.5386349019593
2112,-57.5556251444455
2111,-61.4365450150491
2110,-65.5585348034602
2109,-67.6035982960884
2108,-54.0190062987107
2107,-37.1022960629816
2106,-21.1915179761297
2105,-17.8579775357407
2104,-17.5010659595171
2103,-17.3497696373302
2102,-19.632658782929
2101,-22.559505509155
2100,-25.355169221008
2099,-26.1444831408917
2098,-26.3378768436572
2097,-26.742495253984
2096,-30.5084768142404
2095,-35.3992206883007
2094,-40.0498581013795
2093,-39.0659314034327
2092,-35.9424820913916
2091,-32.7341175690478
2090,-29.7039313184613
2089,-26.7249416681395
2088,-23.7770657444344
2087,-20.1782829176882
2086,-16.0920429634054
2085,-12.2298626732032
2084,-12.7817735730404
2083,-16.1103996601784
2082,-19.4120248493194
2081,-23.6157792920969
2080,-28.3823598845794
2079,-33.1205987509573
2078,-37.1949199759108
2077,-40.6150040980103
2076,-44.079687267919
2075,-40.4157264470405
2074,-28.4160308550158
2073,-16.5716554757527
2072,-9.25482597446861
2071,-8.79258164573902
2070,-8.48693071477002
2069,-6.38997125099545
2068,-0.990738188041835
2067,4.43900007634752
2066,9.65521449628199
2065,14.4202802409865
2064,19.1103901582673
2063,21.7217827856191
2062,17.8001340437887
2061,13.4749869053692
2060,8.83180573698173
2059,2.87749791510459
2058,-3.16337130348442
2057,-8.10580143885323
2056,-7.19612093660685
2055,-5.47345000831823
2054,-3.55200186001072
2053,0.0106786705823791
2052,3.89374973298732
2051,7.72654674137341
2050,11.4460866487742
2049,15.1154889629319
2048,18.4406441252353
2047,15.8242207727566
2046,10.8559190496351
2045,5.83521887386198
2044,-3.84208226472048
2043,-15.9240045462977
2042,-27.8179790291871
2041,-27.3596302749673
2040,-17.6862109025343
2039,-8.07699705787134
2038,-4.1494033468838
2037,-6.31086212432334
2036,-8.44080479383819
2035,-6.22709469073209
2034,3.31563332529573
2033,12.9195149297951
2032,17.9626996302955
2031,12.1036793463212
2030,5.85808862871597
2029,5.15092863651533
2028,22.4993097828182
2027,40.7219384700492
2026,56.0196489004519
2025,53.5521106953161
2024,48.3584119882417
2023,43.8304169140219
2022,44.7572492642922
2021,46.9640236858184
2020,49.2018794740975
2019,52.4212871962163
2018,55.9590235243823
2017,59.2584467935028
2016,58.2082362999082
2015,54.6658371241503
2014,51.1384255352717
2013,48.0330768866685
2012,45.3241711445949
2011,42.5774693428238
2010,43.4601105974634
2009,49.519982244834
2008,55.5845116429674
2007,59.0837130323164
2006,57.2983037235514
2005,55.3184178847438
2004,53.7043783532622
2003,53.3835104187933
2002,53.1748723450213
2001,53.4403380388175
2000,57.1444873273555
1999,61.4125961496848
1998,65.8835892749506
1997,75.7643021791817
1996,87.1453672581288
1995,97.8683967221757
1994,99.4222412966052
1993,96.2863131911612
1992,93.2138145631376
1991,90.6930515155915
1990,88.6831416974213
1989,86.6995377443026
1988,85.1853072004855
1987,84.4298434370374
1986,83.6824954179013
1985,82.594412344044
1984,80.5952130425696
1983,78.5506107856242
1982,76.5914772133643
1981,74.9084650460124
1980,73.2504008244502
1979,72.1958888883104
1978,76.6991489296548
1977,82.7327524490494
1976,88.5089492255101
1975,88.5639872564569
1974,86.2890722904979
1973,83.9913724075933
1972,82.7321702372209
1971,82.2750017444741
1970,81.8157506671963
1969,89.6635376269187
1968,110.692812320249
1967,131.196145311555
1966,146.547078577857
1965,146.504698101929
1964,145.419211984535
1963,143.900822413974
1962,139.98150258123
1961,135.714224080165
1960,131.772410102584
1959,132.801159838077
1958,135.301449200064
1957,137.790153764934
1956,141.241655767699
1955,145.457815202233
1954,149.65134369114
1953,156.75570151085
1952,167.620533032349
1951,178.463092404725
1950,186.378006629801
1949,186.100399108126
1948,185.359773371918
1947,185.136384906835
1946,187.591857129414
1945,190.414126935758
1944,193.336202475411
1943,196.212803181979
1942,198.954130980306
1941,201.655383636383
1940,201.633382513112
1939,199.882594865174
1938,198.132927939541
1937,203.288297670071
1936,218.449109189524
1935,233.209703466511
1934,243.36610395741
1933,240.211212356086
1932,236.221370937179
1931,232.21872755254
1930,228.032255741527
1929,223.737712393094
1928,219.566491577958
1927,217.5336486249
1926,216.282293151561
1925,215.031137454688
1924,213.142681677925
1923,210.675793491779
1922,208.21446834118
1921,206.931505524969
1920,208.286332752406
1919,209.731107872896
1918,210.923527582074
1917,210.578726792959
1916,209.995180532092
1915,209.235345964243
1914,206.197787341591
1913,202.467660891327
1912,198.779082266251
1911,200.84430254012
1910,207.157360205172
1909,213.451522815149
1908,216.929322745128
1907,215.072948668037
1906,213.090394400205
1905,212.934019903264
1904,221.251439865823
1903,230.611187718704
1902,239.61517729487
1901,243.599967427
1900,245.900044624103
1899,248.196968062261
1898,253.273057719439
1897,260.617593289679
1896,267.911367348818
1895,272.079804622522
1894,269.595260819091
1893,266.894267783956
1892,264.196140070413
1891,261.48355808569
1890,258.772724380352
1889,256.063382579346
1888,253.290242279324
1887,250.494316388518
1886,247.702687570833
1885,248.044251742093
1884,251.603118576242
1883,255.151312357749
1882,257.02432826018
1881,254.452895170436
1880,251.647797690863
1879,248.76547718574
1878,245.284607763885
1877,241.691401786816
1876,238.180065761213
1875,237.538419564046
1874,238.364330197063
1873,239.18638784702
1872,240.356763941438
1871,242.024891482342
1870,243.700521074744
1869,245.294613194081
1868,246.892938775166
1867,248.570825068244
1866,250.178478082101
1865,250.814451256497
1864,251.112087669822
1863,251.403622204782
1862,254.206339654679
1861,259.287865393525
1860,264.340542888665
1859,267.430421101637
1858,265.676945839717
1857,263.694444845468
1856,261.655816570391
1855,259.276987226912
1854,256.819777476658
1853,254.373205461936
1852,252.469983924988
1851,250.913974152984
1850,249.366961774653
1849,248.197919552928
1848,247.862454880635
1847,247.556194170034
1846,246.982436856897
1845,244.748150320436
1844,242.229054453237
1843,239.760629564809
1842,238.031256793761
1841,236.70144551384
1840,235.372138275524
1839,234.044370037306
1838,232.718889028039
1837,231.394728098581
1836,229.969088468565
1835,227.940773593132
1834,225.816739694385
1833,223.670175390199
1832,220.81966769437
1831,217.616849382267
1830,214.35986928621
1829,212.410601693448
1828,212.662374045692
1827,212.897742037168
1826,213.909151949224
1825,219.586988913526
1824,226.009253459491
1823,232.314131357535
1822,235.199517397702
1821,236.502010141268
1820,237.877053977511
1819,238.615358990578
1818,238.220666726875
1817,237.806146237237
1816,237.286457352825
1815,235.936025696415
1814,234.447198161649
1813,232.920413561953
1812,228.455172194009
1811,222.165220484684
1810,216.025755033958
1809,211.916163441903
1808,212.37763150574
1807,213.030581909728
1806,213.374983516722
1805,211.56682658891
1804,209.273394946765
1803,206.981943608302
1802,204.573170120671
1801,202.057916505526
1800,199.510491298331
1799,201.089993290029
1798,214.711479810786
1797,229.468506344185
1796,242.987780722045
1795,245.448349298669
1794,244.453470828367
1793,243.458934069173
1792,235.661410758175
1791,220.181002529099
1790,204.288048408882
1789,191.388696297043
1788,189.938283903523
1787,189.773875322233
1786,189.552291895581
1785,188.360400449954
1784,186.693547814634
1783,185.039282745808
1782,183.395631854287
1781,181.761047510483
1780,180.138625986694
1779,178.745485097739
1778,179.21789532198
1777,180.040249990878
1776,180.870275789931
1775,186.354616660303
1774,195.937796255856
1773,205.8415322597
1772,213.108473346153
1771,211.962441532209
1770,210.107709493534
1769,208.283622573123
1768,206.778691788882
1767,205.403443640408
1766,204.028824845294
1765,201.337187408607
1764,196.40313065639
1763,191.428343789927
1762,186.846540614557
1761,185.651286479446
1760,185.211060811973
1759,184.746781341749
1758,183.872480596942
1757,182.627362616098
1756,181.382765337402
1755,182.900415433877
1754,194.531223929225
1753,207.154800132084
1752,219.517835192662
1751,222.520886295705
1750,220.942439173095
1749,219.36508362222
1748,218.322695022705
1747,218.571694122554
1746,218.916370232436
1745,219.057578188614
1744,217.276042272181
1743,214.96062837998
1742,212.648403781605
1741,210.441480243472
1740,208.37866807471
1739,206.318709486698
1738,205.290876284752
1737,210.758541305098
1736,217.420024099729
1735,224.040069368356
1734,226.072836733839
1733,224.16180412292
1732,222.25343898276
1731,221.468473391615
1730,225.553703968525
1729,230.135031237577
1728,234.736199957719
1727,240.981755346929
1726,248.173752460226
1725,255.34431794767
1724,262.24434699906
1723,268.430112340326
1722,274.554143224813
1721,280.517769316598
1720,283.113496646336
1719,284.386270791116
1718,285.651928150287
1717,285.492109219938
1716,282.449526704656
1715,279.345232924795
1714,276.49508574862
1713,276.377828141343
1712,277.10369373069
1711,277.81874803699
1710,278.886544024056
1709,280.528587421043
1708,282.16749924851
1707,283.34584861439
1706,280.924927556147
1705,277.736071685898
1704,274.498973898783
1703,275.841636296051
1702,283.041232490401
1701,290.222336200175
1700,296.503257708237
1699,298.246936693148
1698,299.046588657922
1697,299.840596125987
1696,299.607357669635
1695,298.307243121163
1694,297.009181494754
1693,296.103958741124
1692,297.656648774782
1691,299.599391020757
1690,301.437534565712
1689,302.295419096951
1688,302.102256604469
1687,301.868307261797
1686,301.310508950635
1685,298.815772102695
1684,296.01051644547
1683,293.214739469251
1682,294.346957638214
1681,299.035943912867
1680,303.703740730125
1679,307.758057306788
1678,309.613042331456
1677,311.110301192656
1676,312.509981176945
1675,312.998504626777
1674,312.577768066863
1673,312.124747770617
1672,313.049272320537
1671,321.132077441779
1670,329.994512007541
1669,339.129748373091
1668,343.547961768079
1667,343.581495001211
1666,343.655414233362
1665,343.97835129583
1664,345.672382777083
1663,347.677092511226
1662,349.667599439494
1661,355.127811444676
1660,364.190879661452
1659,373.518554331637
1658,381.825926220046
1657,383.326712095268
1656,383.679918666572
1655,384.023327835638
1654,382.39339915995
1653,378.435746388532
1652,374.403517147041
1651,370.57149710499
1650,368.407690926221
1649,366.601001723631
1648,364.784595781995
1647,362.969369723487
1646,361.166827450292
1645,359.367015266074
1644,358.368714571291
1643,366.896183076831
1642,377.910304983339
1641,388.849877782894
1640,395.264531181285
1639,391.63188448329
1638,387.736302066901
1637,384.044832770386
1636,384.832120953684
1635,387.623729146903
1634,390.393178849845
1633,392.134377011476
1632,391.355056311092
1631,390.434792272155
1630,389.446062902649
1629,385.446545195699
1628,379.857618333998
1627,374.296978086546
1626,369.146476804053
1625,366.072059865834
1624,363.286402841631
1623,360.50782965914
1622,360.679168740489
1621,363.456961858283
1620,366.352091512996
1619,369.104997493973
1618,370.903108158982
1617,372.543603048822
1616,374.167759278359
1615,375.712998489737
1614,377.238026473521
1613,378.751080633325
1612,380.002991803095
1611,379.194129706432
1610,377.767956317363
1609,376.342490408497
1608,376.600617844859
1607,381.444093723551
1606,386.501850190654
1605,391.281899192929
1604,393.385222380409
1603,394.111352985067
1602,394.82892500959
1601,395.086491637408
1600,393.281412684686
1599,391.205487181906
1598,389.132388389781
1597,390.870136974543
1596,396.080909875778
1595,401.27041989672
1594,405.842491867684
1593,404.994137365221
1592,402.864676008697
1591,400.738813162747
1590,399.487471141446
1589,400.168564449972
1588,400.906023454496
1587,401.516925895535
1586,400.722392295478
1585,399.321354418272
1584,397.920855860824
1583,397.42782665917
1582,400.483857411645
1581,403.882895292546
1580,407.264131617739
1579,407.627872781628
1578,404.887574777321
1577,402.152107207921
1576,401.019498189135
1575,417.143365483717
1574,437.937747813285
1573,459.394609760193
1572,474.062978317194
1571,474.36915994308
1570,474.284339500059
1569,474.170216629139
1568,472.853373724179
1567,470.912001833602
1566,468.972150796463
1565,466.661073935774
1564,462.523133086851
1563,458.152782417867
1562,453.796985588418
1561,450.300654437811
1560,447.950581296816
1559,445.608910828377
1558,443.312455942962
1557,441.739691789432
1556,440.424664542808
1555,439.109979551052
1554,437.197403364791
1553,433.274510526921
1552,429.20335190149
1551,425.146088828717
1550,421.595351160147
1549,418.504127448597
1548,415.419948962893
1547,412.475488562891
1546,410.844922695977
1545,409.551153478595
1544,408.262745832862
1543,406.870906882492
1542,405.163417231972
1541,403.435305343269
1540,401.715108578067
1539,403.974241689991
1538,409.552321501602
1537,415.117565625633
1536,421.551356600215
1535,435.988753122992
1534,452.290832053353
1533,468.54241834528
1532,479.392783842434
1531,477.649108530999
1530,475.409220300184
1529,473.178103102823
1528,473.334797358877
1527,475.436424384656
1526,477.529474209507
1525,479.26284149072
1524,477.853507111644
1523,475.709253530376
1522,473.567745406682
1521,472.10856287237
1520,472.196611887379
1519,472.347902231436
1518,472.545191707856
1517,471.239151741086
1516,468.695056487591
1515,466.154416965856
1514,463.78550212587
1513,462.995008042243
1512,462.553518549453
1511,462.109178722412
1510,461.343325219749
1509,459.495410046412
1508,457.574008821307
1507,455.65503255492
1506,455.781909491112
1505,457.619032588046
1504,459.449923588213
1503,461.270359158412
1502,461.440966155161
1501,461.062611503575
1500,460.6833885975
1499,462.701613307513
1498,474.154688877127
1497,486.888769558591
1496,499.621766790376
1495,505.424601933169
1494,502.220535700464
1493,499.040447122282
1492,495.950003724361
1491,495.360717378778
1490,495.968365681372
1489,496.571189257283
1488,497.255471442982
1487,498.836187539995
1486,500.656216629104
1485,502.476937681531
1484,503.609672459337
1483,503.505882853114
1482,503.410793632838
1481,503.32626523052
1480,505.308515444126
1479,508.587690352205
1478,511.855607975109
1477,515.539181170167
1476,522.259290342486
1475,529.528869227407
1474,536.783073690328
1473,542.720940970606
1472,542.809197272558
1471,542.318892183112
1470,541.828273725819
1469,541.579468479902
1468,541.636819640284
1467,541.646817979023
1466,541.791899526271
1465,548.570386951368
1464,558.938414284947
1463,568.904837763908
1462,577.969307715265
1461,580.256025811191
1460,580.972308432135
1459,581.617731945399
1458,583.465847641776
1457,588.993906917461
1456,594.530549168972
1455,600.061928606599
1454,603.245765793717
1453,603.254588976415
1452,603.253871248846
1451,603.28438945453
1450,602.782193437331
1449,602.002520990359
1448,601.220372402654
1447,600.835852376606
1446,602.89566975925
1445,605.438634132308
1444,608.110296292587
1443,613.433122896647
1442,627.106757408309
1441,641.757202326253
1440,655.879574655074
1439,666.02820548615
1438,671.196836759667
1437,676.109475164473
1436,681.035607951749
1435,687.332519551806
1434,693.978659701881
1433,700.607345329783
1432,706.561175193339
1431,705.47204672632
1430,702.593847836963
1429,699.758892022913
1428,697.465672262835
1427,697.299962804568
1426,697.305058968583
1425,697.308008165478
1424,699.02290495873
1423,703.38657352158
1422,707.788481103182
1421,712.178449877484
1420,713.535810225277
1419,712.477694403085
1418,711.399559340324
1417,710.471443677255
1416,712.108621224077
1415,714.718622106615
1414,717.456645208167
1413,721.18180577983
1412,732.210850889589
1411,744.391491421184
1410,756.528818272392
1409,766.074214865837
1408,767.446346155128
1407,768.360225378085
1406,769.189633251674
1405,769.941709258796
1404,770.580524147748
1403,771.215944836311
1402,771.843334293396
1401,770.598158233001
1400,767.933102332712
1399,765.299919061881
1398,762.664485420488
1397,759.9530583448
1396,757.215954849945
1395,754.482184606936
1394,752.280277765706
1393,753.567859016889
1392,755.536330741527
1391,757.498963491649
1390,760.962060852421
1389,769.585183920201
1388,778.674978822317
1387,787.749484587208
1386,797.934231182884
1385,810.268001798093
1384,822.671954964617
1383,835.082720895019
1382,842.436958498459
1381,844.673307033155
1380,846.772241893574
1379,848.681437959847
1378,847.614466769712
1377,844.872226408883
1376,842.132778413137
1375,839.241902077401
1374,834.194071987768
1373,828.506343272015
1372,822.82627572495
1371,817.972212285208
1370,818.230351637652
1369,819.288328214199
1368,820.341772205486
1367,819.813528080372
1366,814.070499048262
1365,807.971146380214
1364,801.882159509514
1363,797.009993337112
1362,794.413585120082
1361,791.832915624787
1360,789.254590356974
1359,781.904062769232
1358,769.13086434963
1357,756.370702851985
1356,743.684290426741
1355,735.829020728184
1354,730.942667985559
1353,726.16615363398
1352,721.234467164607
1351,715.132548733378
1350,708.555536801512
1349,701.98501820141
1348,695.863176351721
1347,692.66259739306
1346,690.234685463915
1345,687.808581496043
1344,684.870321942688
1343,679.191560681983
1342,673.152581956064
1341,667.263454144486
1340,661.248271371383
1339,655.259099104812
1338,649.423155508477
1337,643.461661496668
1336,637.252528951913
1335,630.482194263982
1334,623.711168709315
1333,617.121417959877
1332,611.632812428708
1331,607.927811361677
1330,604.311092022824
1329,600.631703261169
1328,595.405361096691
1327,588.92830054089
1326,582.295203659313
1325,575.56316757731
1324,560.615094393444
1323,540.862599696097
1322,521.742680035643
1321,502.50629831845
1320,491.379568955723
1319,483.780789795139
1318,475.999486513832
1317,468.567119902512
1316,465.008812872053
1315,462.426523472958
1314,459.84769188904
1313,456.766071331518
1312,449.644357261279
1311,441.494406676693
1310,433.357241888441
1309,426.103957540464
1308,422.341320034154
1307,419.108212294641
1306,415.933836389674
1305,409.597716676399
1304,392.360462362445
1303,374.673885106831
1302,357.0532829188
1301,342.967768772692
1300,339.862724972952
1299,337.496881415536
1298,335.102429864164
1297,332.74695336769
1296,330.494648305642
1295,328.247467645083
1294,325.976786927475
1293,322.304240269554
1292,316.619359799427
1291,310.92874721949
1290,305.105543819862
1289,301.168836081552
1288,299.4651257684
1287,297.762667877655
1286,296.051350034056
1285,294.053010826468
1284,291.824505433627
1283,289.598824788507
1282,287.265892514956
1281,276.421386450898
1280,260.068404516397
1279,243.73618251053
1278,227.147619749732
1277,220.05174211666
1276,218.324697615823
1275,216.598883217828
1274,214.84624615391
1273,211.892006627608
1272,208.359730345974
1271,204.907853826296
1270,201.53135677468
1269,199.683187522805
1268,198.47346196978
1267,197.264528520361
1266,196.156804302029
1265,196.641271214217
1264,197.659520746364
1263,198.754627323997
1262,199.748095762116
1261,199.568021689518
1260,199.090136569871
1259,198.611634034402
1258,198.086225487806
1257,197.041537648962
1256,195.85141932296
1255,194.657506046114
1254,193.552782066614
1253,193.202159854684
1252,193.023758745951
1251,192.884694771553
1250,192.735094048776
1249,192.471128344626
1248,192.193777030356
1247,191.917204564222
1246,191.418433009832
1245,189.35620625738
1244,186.959691381423
1243,184.56615312884
1242,182.456551858559
1241,181.747039031818
1240,181.257401186742
1239,180.768334516189
1238,180.298330381048
1237,179.940773775583
1236,179.634883801087
1235,179.329307460118
1234,178.21254465196
1233,173.224373307327
1232,167.715656627854
1231,162.213949852954
1230,156.526322272005
1229,149.817607994099
1228,142.968557544833
1227,136.131330995293
1226,130.250505040461
1225,129.947695187841
1224,130.409831199371
1223,130.874760184804
1222,130.930343582907
1221,128.975557391948
1220,126.755489447593
1219,124.537690466709
1218,122.218307690892
1217,119.347703203785
1216,116.398729626232
1215,113.453086489096
1214,110.685486588771
1213,108.954169247741
1212,107.392814707919
1211,105.833014370271
1210,104.427935640331
1209,103.924853688557
1208,103.543618620135
1207,103.163200633983
1206,102.838060143877
1205,102.822009835096
1204,102.856067408366
1203,102.892178136655
1202,102.741228079994
1201,101.385546527608
1200,99.8187648729195
1199,98.2535711845803
1198,97.1595987978897
1197,99.4830686940557
1196,102.482671239511
1195,105.476015413875
1194,108.131791397264
1193,107.982967510308
1192,107.201923455899
1191,106.421390882074
1190,105.560255282863
1189,103.891510496224
1188,102.016857272595
1187,100.143784112704
1186,98.5208531485215
1185,99.883447918111
1184,102.10634389649
1183,104.316287982599
1182,106.166032304697
1181,102.809606798345
1180,97.7293097192528
1179,92.6583827258153
1178,87.6343473026986
1177,83.338687208373
1176,79.4190091355142
1175,75.5075308030502
1174,71.562995714196
1173,70.1729069677292
1172,70.1883392138964
1171,70.2018557942955
1170,70.2232787623957
1169,71.1047988777112
1168,72.5339868074904
1167,73.9554396921217
1166,75.3638940875884
1165,75.6426025834484
1164,75.0718039861658
1163,74.5012364982131
1162,73.9308998273712
1161,72.4706221024665
1160,70.2484553374623
1159,68.0304410857688
1158,65.7827403530913
1157,63.9416614595501
1156,62.6643254039123
1155,61.3915916706636
1154,60.119944899
1153,59.1965304063826
1152,58.8512321811709
1151,58.5153798507827
1150,58.1505014813065
1149,57.4823109026307
1148,56.0877891863222
1147,54.6589848661047
1146,53.2316021639325
1145,51.4407302096013
1144,48.5635276853595
1143,45.6202956589011
1142,42.7405729261435
1141,40.2036155733712
1140,39.1606076745863
1139,38.3086034447897
1138,37.457015814844
1137,36.5159848385526
1136,35.0657916267236
1135,33.5480383851519
1134,32.0319803435847
1133,30.5817737157153
1132,29.86006711612
1131,29.3221745127141
1130,28.7847760862792
1129,28.1475734934123
1128,26.2274127216358
1127,23.8988889592515
1126,21.5339083731608
1125,19.2066855352332
1124,18.0106062355727
1123,17.3390470184733
1122,16.6681767095083
1121,16.0148533049929
1120,15.1397101712334
1119,14.0974447094742
1118,13.0558840555381
1117,12.0101733490747
1116,10.4972329918645
1115,8.40949502987219
1114,6.32398528759797
1113,4.24234653150138
1112,3.02929842837511
1111,3.25674682147418
1110,3.55399189849823
1109,3.85298643437643
1108,4.31191241622177
1107,5.35465526958394
1106,6.50959248604617
1105,7.66936894921553
1104,8.19471521865329
1103,6.2054123159066
1102,3.95450328747821
1101,1.67109895025522
1100,-0.556348906817636
1099,-2.4105867176871
1098,-4.19699179475789
1097,-6.00178489464593
1096,-7.79905587805254
1095,-9.51329527249128
1094,-11.2061707601865
1093,-12.9150656332931
1092,-14.6059015880809
1091,-15.7357203594523
1090,-16.5804657535551
1089,-17.4137540610967
1088,-18.2457230470846
1087,-18.6973749043757
1086,-18.8061071223572
1085,-18.8789966090188
1084,-18.98855420217
1083,-17.6168995089186
1082,-13.5349425466653
1081,-9.40177094318448
1080,-5.44689380691701
1079,-2.89715479887479
1078,-4.32855313855545
1077,-6.01127386951209
1076,-7.69265023570959
1075,-8.97018833497631
1074,-8.15018826554585
1073,-7.119156093768
1072,-6.08777603115609
1071,-5.33830819503413
1070,-7.83863708567539
1069,-11.1455341502029
1068,-14.521744492391
1067,-17.781617481824
1066,-19.6374956343749
1065,-20.8410252966809
1064,-22.042136922382
1063,-23.2422530366896
1062,-26.8090219397779
1061,-32.3041669907419
1060,-37.7880116354798
1059,-43.4097654811492
1058,-46.8400649049018
1057,-46.7805276131027
1056,-46.6357544993141
1055,-46.5364658879065
1054,-45.9651589877656
1053,-43.7585071107588
1052,-41.5416884982189
1051,-39.3281881580421
1050,-37.4096106619278
1049,-37.622036529841
1048,-38.2006849653442
1047,-38.797267830259
1046,-39.3683517393055
1045,-39.4691768932787
1044,-39.4410045082126
1043,-39.4118224740068
1042,-39.3801547413086
1041,-38.6823117189699
1040,-37.3984267988773
1039,-36.1982582838448
1038,-35.0007627741611
1037,-33.9522468232651
1036,-33.149845910568
1035,-32.2884605328454
1034,-31.4997766403293
1033,-30.8922256724462
1032,-30.8431434951794
1031,-30.8394119339867
1030,-30.7945077265601
1029,-30.8515457265837
1028,-31.3783953838067
1027,-31.9918589357415
1026,-32.6048985510121
1025,-33.1883436582251
1024,-33.589900577794
1023,-33.9089134076017
1022,-34.2274104543692
1021,-34.5453923583188
1020,-35.3469162393036
1019,-36.6055581888852
1018,-37.8629887714246
1017,-39.1192088887718
1016,-39.6667125526337
1015,-38.7932225163964
1014,-37.8764454832605
1013,-36.9639231267996
1012,-36.0683950023142
1011,-35.2365969677718
1010,-34.418582530605
1009,-33.6063124967823
1008,-32.8637890343695
1007,-32.9873926256085
1006,-33.4032877187603
1005,-33.8190198237895
1004,-34.2365373751039
1003,-35.000746910843
1002,-36.0371484429705
1001,-37.0687088230814
1000,-38.1034987967387
999,-39.2194038103368
998,-40.4756614181113
997,-41.733735198653
996,-42.99061972536
995,-44.3565183862411
994,-46.162684573414
993,-48.0170233908253
992,-49.8679600668624
991,-51.4837608976999
990,-49.7231723605156
989,-46.8499113019346
988,-43.96977858442
987,-41.0832834969734
986,-39.8165213373441
985,-39.8581239308896
984,-39.9005483290814
983,-39.9437948148552
982,-39.8908235852047
981,-39.6419704653338
980,-39.3893056577598
979,-39.1398324142056
978,-38.2319887922692
977,-34.0648299790073
976,-29.418894780722
975,-24.7805665679272
974,-20.4758296665156
973,-19.236063807186
972,-19.3214517690222
971,-19.4068804762687
970,-19.4923508906221
969,-19.6772203571562
968,-19.9685357332014
967,-20.2910121498002
966,-20.5838417119294
965,-21.2139894543188
964,-22.8921159735618
963,-24.6332046570947
962,-26.3717079932133
961,-28.0340011300455
960,-29.0523729128109
959,-29.9188065409415
958,-30.7847809268598
957,-31.6021601793637
956,-29.3037186614758
955,-25.1950789215986
954,-20.9042519712621
953,-16.6197609538721
952,-13.8626924636213
951,-13.9995832322617
950,-14.2550475929511
949,-14.4778494795265
948,-14.5791921153397
947,-13.9610376315165
946,-13.2366357947292
945,-12.5790432029534
944,-11.8436124904568
943,-10.7629379871457
942,-9.60498878868876
941,-8.36775297783388
940,-7.13507885943509
939,-6.65431621508597
938,-7.2434404977579
937,-7.86368409924662
936,-8.46316387014678
935,-9.09596750203784
934,-9.88939194519229
933,-10.6851522801405
932,-11.4817075869211
931,-12.3136914246223
930,-13.6633111360196
929,-15.2238893844076
928,-16.7698312854869
927,-18.3268643115454
926,-18.8844285426027
925,-18.2302680727821
924,-17.5067726293813
923,-16.7812956505314
922,-16.3209792681685
921,-16.6837957544582
920,-17.1407650498611
919,-17.622567013204
918,-17.9318170789397
917,-15.7634183142077
916,-12.7897255702347
915,-9.81426220595179
914,-6.68785331339647
913,-5.62658365368627
912,-7.32714256778039
911,-9.05224227039993
910,-10.7751726053761
909,-11.4659896729333
908,-7.38389889912979
907,-2.75860793521865
906,1.65068809022567
905,5.92973544605222
904,6.61656189537432
903,5.60328417704895
902,4.58369528802893
901,3.56472096334467
900,2.93024657568816
899,2.91940112073836
898,2.87926396927457
897,2.83986671893338
896,3.1623533493369
895,5.29763880889223
894,7.6143086862323
893,10.0542753596333
892,12.4509388794414
891,12.8367163935291
890,12.2045028227823
889,11.5725822922778
888,10.962092010372
887,10.3117025272745
886,9.55570974349135
885,8.79706320882891
884,8.05499695170035
883,7.2791403535655
882,6.2005113786269
881,5.05753247670626
880,3.91798286537716
879,2.78276441386886
878,5.91336466986672
877,12.6409844076072
876,19.3470918000556
875,26.3144563824485
874,32.0835716532754
873,33.6944741903787
872,35.0025969034898
871,36.3087343087775
870,37.7041366025716
869,39.0943422880821
868,40.3893421134127
867,41.6815741157132
866,42.9710381407795
865,43.1464456859105
864,41.2845719188283
863,39.4061523102359
862,37.5304257788002
861,35.654379757532
860,33.7586973059923
859,31.8385883336327
858,29.921662191061
857,28.0407554223176
856,29.0944929286106
855,32.4535578600793
854,35.810686000131
853,39.3308045318588
852,41.3038030241491
851,38.2294087357784
850,34.8061489153009
849,31.3864550823824
848,28.0473049911605
847,26.9137339072471
846,26.8298451333126
845,26.7444203763496
844,26.6172435571222
843,27.3378926724678
842,29.6552100865071
841,31.9978502768873
840,34.3295352526518
839,36.4111623941008
838,35.8401001555229
837,34.5375854062362
836,33.2373011803501
835,31.9379623432259
834,31.0833610366602
833,30.7286249030494
832,30.3743287829098
831,30.0204717683062
830,29.6794273172226
829,29.4475477389184
828,29.2277185905975
827,28.9720233353004
826,28.7322686135299
825,30.2957820367227
824,33.0534215151398
823,35.8062394338389
822,38.5542362966126
821,41.1574728195555
820,43.2532725419569
819,45.297028445256
818,47.3334714436763
817,49.3468444077301
816,50.7001754983617
815,51.6573661218259
814,52.5365726678096
813,53.4152979924533
812,53.763399761123
811,52.8857147687726
810,51.9596073574905
809,51.033849844447
808,50.1781786850984
807,50.4753965268741
806,51.18032406878
805,51.8849283727865
804,52.5892090304559
803,53.3726293954474
802,54.3109917880307
801,55.2529540648106
800,56.1946236098434
799,57.0327162294131
798,56.5664938105486
797,55.707304327519
796,54.8476354509078
795,53.9874884892585
794,54.6751316526576
793,57.9529628524998
792,61.2647859353677
791,64.5697715605572
790,67.6133045277928
789,68.042314591817
788,67.7882123662398
787,67.532414974585
786,67.2749241555226
785,66.2089157517433
784,63.9555873554723
783,61.6969075484992
782,59.4424491161359
781,57.523095053264
780,58.4814329432975
779,60.1008791164627
778,61.7155633992133
777,63.3254885174837
776,66.1208450386401
775,70.4742445470794
774,74.8251950594535
773,79.1665554441828
772,83.0177060825225
771,83.1707616703341
770,82.5514190055421
769,81.9320245603277
768,81.3125768712399
767,81.0519768601732
766,81.222149115259
765,81.3908548480466
764,81.5574199947304
763,81.8662398649052
762,83.1923231241323
761,84.7126252013227
760,86.2312066090786
759,87.6454556367993
758,88.2530841835207
757,87.7815103914333
756,87.2997264921169
755,86.817062380973
754,86.3175796361963
753,85.6732400683381
752,84.9944753604687
751,84.3156504679551
750,83.636763861269
749,84.3505704869046
748,87.0240585279456
747,89.5689180048209
746,92.1166164164317
745,94.5491342720416
744,93.7139019248385
743,91.905090622666
742,90.0976441209642
741,88.2915601659373
740,86.7677773888804
739,85.7432818409923
738,84.7286293485811
737,83.7017297418486
736,82.880920226822
735,85.9468694389632
734,90.4768064916819
733,95.0036049578876
732,99.5272673521933
731,102.462458509506
730,101.767429207388
729,100.933408808308
728,100.119925615908
727,99.3406624081314
726,99.7352073919904
725,100.704444684927
724,101.673409632349
723,102.557705270748
722,104.064358974536
721,108.031220674227
720,112.219077391094
719,116.395952971213
718,120.529989653308
717,121.538008362271
716,120.503556816087
715,119.468898783719
714,118.448206996272
713,117.869324925432
712,119.612535380017
711,121.685056748059
710,123.629428356124
709,125.570454907827
708,126.963785015384
707,127.554873964237
706,128.142807456856
705,128.656481759426
704,129.085488569551
703,128.708476678245
702,128.095993532444
701,127.483459870242
700,126.841452781307
699,129.016420445274
698,137.255136378606
697,145.673271032887
696,154.06736830948
695,161.872248428624
694,163.268410999435
693,161.914790631304
692,160.561801073127
691,159.204932128358
690,157.918401224504
689,156.908653519098
688,155.926170691645
687,154.943824469589
686,153.943966835359
685,152.812408456126
684,151.580414395366
683,150.348865121812
682,149.10907818597
681,147.909649779199
680,147.031716197198
679,146.220181209655
678,145.384900761968
677,144.549505255545
676,143.691473923852
675,142.751980096376
674,141.792288193959
673,140.832924159617
672,139.884797276922
671,138.747520804733
670,137.537621325874
669,136.337730527852
668,135.138182689752
667,134.596431676393
666,136.65289908622
665,139.079542419165
664,141.506842264762
663,143.795118548185
662,145.60943623694
661,147.066104673356
660,148.417288094437
659,149.768082051041
658,151.44193336825
657,155.041960736947
656,159.180453293418
655,163.531300462189
654,167.885746238836
653,171.179863259619
652,172.440642259043
651,173.726159210065
650,174.908259883602
649,176.077295990787
648,176.424135085193
647,176.130905279326
646,175.835439519319
645,175.583458271618
644,175.429232190655
643,176.282021499168
642,177.402474677193
641,178.426131490153
640,179.447893094931
639,179.879617873935
638,179.051074494242
637,178.197618064808
636,177.369658639224
635,176.524304861579
634,176.053740005704
633,175.816592510259
632,175.532176192697
631,175.247158205028
630,175.212622881385
629,176.643916984449
628,178.404303085291
627,180.042874476707
626,181.677881722832
625,182.764860544077
624,182.732086984036
623,182.683792497967
622,182.689612922929
621,182.639631767085
620,182.656744911568
619,182.70396303987
618,182.750600694999
617,182.856386859783
616,182.719391729911
615,181.621868597201
614,180.398870389072
613,179.175724568427
612,177.965130830022
611,176.831565363747
610,175.844793251891
609,174.858933538454
608,173.872647504357
607,172.950825518614
606,173.280592364752
605,174.246395456153
604,175.211662216943
603,176.176393151035
602,177.738457870727
601,183.362749997067
600,189.960603943565
599,196.256272367944
598,202.542126115873
597,206.485760755061
596,205.58758128652
595,204.573669647223
594,203.559681972954
593,202.582198850807
592,202.468867179099
591,202.919953741282
590,203.370005991905
589,203.819022741721
588,204.216421488095
587,204.124565964539
586,203.920556016516
585,203.71642594385
584,203.512174285089
583,203.521548692199
582,204.166569107199
581,204.85853123254
580,205.636018258334
579,206.327096964347
578,208.19074803669
577,211.224991703286
576,214.260022224744
575,217.295849713322
574,220.269576062023
573,222.209158060671
572,223.751584748333
571,225.292252256838
570,226.831160734073
569,228.020692442333
568,227.428935583323
567,226.612090395614
566,225.795042779337
565,224.977790048727
564,225.165087381123
563,227.22531515902
562,229.337713218332
561,231.450896984219
560,233.550645858744
559,234.253972617787
558,233.981543270853
557,233.70847016672
556,233.382324512257
555,233.082791482806
554,232.476204522083
553,231.771927444835
552,231.068037819275
551,230.364533896971
550,229.509986422817
549,228.007114399705
548,226.439015368125
547,224.871372537439
546,223.304182510642
545,222.509885178851
544,222.968178605157
543,223.369023629018
542,223.85053375097
541,224.330649908646
540,224.502856769991
539,224.461510297492
538,224.420618341442
537,224.380181261889
536,224.244271897081
535,223.645657090868
534,222.882601372457
533,222.118513417452
532,221.35339096148
531,220.855234695639
530,221.481775725125
529,222.153925123007
528,222.914782314582
527,223.672744039079
526,224.536564036562
525,225.613574244341
524,226.592315510113
523,227.673301797361
522,228.752729410477
521,229.484585873285
520,229.90340154672
519,230.236943006463
518,230.644095754751
517,231.033158678454
516,231.111363591186
515,231.064532393424
514,230.952885860843
513,230.901655978422
512,230.677626780245
511,229.218101780309
510,227.539095116646
509,225.860528536708
508,224.182398336363
507,222.739877510745
506,221.993701894878
505,221.332978720644
504,220.67132242751
503,219.968737439658
502,220.761695505521
501,223.924868844424
500,226.939522635969
499,230.127865840448
498,233.296391621548
497,233.163266646396
496,230.549946808194
495,227.940168089691
494,225.36512396053
493,222.955558038748
492,224.268341222888
491,226.940806805286
490,229.77800009183
489,232.609191879716
488,234.903705396835
487,234.210707284206
486,232.854245493717
485,231.481394163983
484,230.123660311666
483,229.064645497663
482,229.051571491036
481,229.202019217917
480,229.351751888919
479,229.428997683539
478,229.14326158311
477,228.001233965879
476,226.809106897618
475,225.618028372275
474,224.451132858481
473,224.244623730607
472,224.991178719725
471,225.832744437306
470,226.671620911538
469,227.403459141032
468,227.638907397094
467,227.637512282723
466,227.636644575291
465,227.569313724774
464,227.569992699121
463,227.578915247199
462,227.523254139079
461,227.467836447024
460,227.480421934338
459,227.533440120279
458,227.786394271001
457,228.089120983175
456,228.474141702377
455,228.859811165695
454,228.966705155808
453,228.27531370339
452,227.539738929684
451,226.803790754934
450,226.026904582555
449,225.448625997153
448,225.455791142541
447,225.489360287912
446,225.454197606864
445,225.419477871434
444,225.551062243628
443,226.048003218703
442,226.551114574796
441,226.968959733763
440,227.388429891522
439,227.524256964059
438,227.296864786319
437,227.009341967788
436,226.721866801712
435,226.442787679516
434,227.176345364293
433,228.499119531603
432,229.705179548711
431,230.912415258816
430,232.065511458103
429,231.885491739692
428,231.110971383252
427,230.294989758504
426,229.478320858472
425,228.80940694809
424,230.004887173404
423,231.693214232116
422,233.248827985906
421,234.803976290766
420,236.278176927951
419,237.321253277062
418,238.26694434502
417,239.108514349692
416,239.951341652862
415,240.609357004203
414,240.47840383363
413,240.324120080667
412,240.169669238108
411,239.949732883797
410,239.704896336052
409,239.390643748882
408,239.072471100248
407,238.754551614887
406,238.498755820949
405,238.395012252261
404,238.519964388885
403,238.652582451496
402,238.785935044572
401,238.92002473648
400,239.005938302879
399,239.083586351915
398,239.158990963758
397,239.158694303794
396,239.157384083675
395,239.424028304373
394,239.994873109071
393,240.567131432496
392,241.140810354573
391,241.815715706057
390,242.932594066268
389,244.274928385525
388,245.614544781766
387,246.951441304
386,248.295934146198
385,250.750338560971
384,253.93473031082
383,257.116549423977
382,260.295798626973
381,263.569568658812
380,263.685189098432
379,262.173511617801
378,260.661234901459
377,259.148353676871
376,257.656778029839
375,256.665852873587
374,255.882530856898
373,255.098482871831
372,254.313704404307
371,253.512239195852
370,252.401791030829
369,251.20375903139
368,250.004342683919
367,248.773226260305
366,247.768504172832
365,249.165140540335
364,251.20437480446
363,253.243547958027
362,255.282665845796
361,256.919429571892
360,254.766166220556
359,251.680088738287
358,248.594749766183
357,245.510141206238
356,242.659534837164
355,241.810468781153
354,241.415647006934
353,241.021142126519
352,240.626953621484
351,240.236299328835
350,239.870864843269
349,239.510549743339
348,239.150041997007
347,238.789339420767
346,238.455468329082
345,238.391273138766
344,238.366112864673
343,238.266095016612
342,238.166506951871
341,238.239391553521
340,239.166014852811
339,240.212922693789
338,241.264946873527
337,242.32212135111
336,243.368313890351
335,244.343816710482
334,245.314701196576
333,246.290558480805
332,247.271421396939
331,247.659938789378
330,245.381590700523
329,242.788031587288
328,240.213557817086
327,237.639309587224
326,235.278307861806
325,234.237839089589
324,233.402073600404
323,232.563362546923
322,231.721702437856
321,230.721907103615
320,228.873470401104
319,226.897122882761
318,224.920679442293
317,222.944133257491
316,220.863639056315
315,218.235817618152
314,215.528700973013
313,212.82196750122
312,210.115609364387
311,207.766270257654
310,207.245727759306
309,206.983349849977
308,206.720922960521
307,206.45844585075
306,206.1913339522
305,205.830769646902
304,205.466590997031
303,205.172381699134
302,204.877876798774
301,204.583748556678
300,204.293690048581
299,204.003858225024
298,203.713413251482
297,203.422351914744
296,203.116515118053
295,202.716396085386
294,202.29893321549
293,201.881335478293
292,201.396922824907
291,201.268923510667
290,204.518668907739
289,208.573790460553
288,212.628459618712
287,216.68268698701
286,220.371889731568
285,220.66638948953
284,220.132716075606
283,219.598937338466
282,219.000878152413
281,218.247404611487
280,215.378119196272
279,211.808728364107
278,208.241931000022
277,204.677716917093
276,201.263297177438
275,199.962825144414
274,199.290444342612
273,198.617220148633
272,198.004421254125
271,197.378109490372
270,196.433048352307
269,195.349104611096
268,194.263628105189
267,193.133230154703
266,191.974521827968
265,189.362361681139
264,185.888517036196
263,182.414495820932
262,178.940286843963
261,175.493662947197
260,173.73011725197
259,172.999817635174
258,172.328876993558
257,171.65797310202
256,170.988004761136
255,170.725460105233
254,170.705047521349
253,170.685090411674
252,170.754235379932
251,170.824147593826
250,170.154331327309
249,168.607206342574
248,167.059566573182
247,165.53927844094
246,164.018532173892
245,162.899027961259
244,162.419449541137
243,161.879518161533
242,161.339900004163
241,160.869409093952
240,160.531012127482
239,160.479918399662
238,160.353626664277
237,160.227616088808
236,160.187894146818
235,159.982341153535
234,159.278575828091
233,158.481142629733
232,157.682735349353
231,156.94291299698
230,156.25305888743
229,155.705046299066
228,155.181187977196
227,154.729238046736
226,154.27839778105
225,154.01151772641
224,154.725209832365
223,155.622871426968
222,156.649622470719
221,157.677134013675
220,158.573150732658
219,159.43323655459
218,160.415744260996
217,161.404050245362
216,162.269468289914
215,163.032379567713
214,161.06097952743
213,157.813145472922
212,154.599140958385
211,151.384659925881
210,148.152215777505
209,146.345094505915
208,145.379571325223
207,144.415063665674
206,143.507600875493
205,142.545283774002
204,141.819089728703
203,141.442367402673
202,141.068299528016
201,140.618977665993
200,140.171240049987
199,139.33097382084
198,137.643537824481
197,135.912011771192
196,134.179587820162
195,132.472595712872
194,130.847306105638
193,129.543465371825
192,128.301709933059
191,127.015654622864
190,125.729704767676
189,123.985671651743
188,119.757165592382
187,115.273325187729
186,110.786458961435
185,106.212815051012
184,101.914307634509
183,99.5672394693697
182,97.6953134848463
181,95.8011072769007
180,93.904879769811
179,92.0698725249279
178,91.0869994425707
177,90.4756698106674
176,89.9356587449493
175,89.3229061323336
174,88.7068240119155
173,87.4739247763675
172,85.6786608582642
171,83.8810382451622
170,82.1061921388699
169,80.3038053940269
168,79.0184140132933
167,78.5869355035535
166,78.0898177755994
165,77.5944658736587
164,77.1791680159802
163,76.5681491166262
162,75.6363130097158
161,74.747799180095
160,73.7965475615395
159,72.8428951108315
158,71.8927063797515
157,70.9738892946436
156,70.1209226613469
155,69.2044996418454
154,68.2869269749789
153,67.208402541846
152,63.8266284624072
151,59.8086212715336
150,55.7894940154279
149,51.7692333122287
148,47.6961401627023
147,44.0796645513312
146,40.684379124749
145,37.2884082381785
144,33.8917412210627
143,30.4577714565329
142,28.0494495134749
141,26.8185695918457
140,25.5860814899166
139,24.3519764209412
138,23.1666553316776
137,20.9639585185189
136,16.3322451636566
135,11.6017723288067
134,6.86948922973333
133,2.04566795243613
132,-2.13324109229417
131,-3.28570344300613
130,-4.04031164854151
129,-4.79608135304997
128,-5.4830552023846
127,-6.20295438934069
126,-6.36366336922048
125,-6.35502725136236
124,-6.34639549891197
123,-6.33776619040503
122,-6.333648688
121,-6.9166772560472
120,-7.93959516422849
119,-8.89831481977316
118,-9.91485929230628
117,-10.9283021624288
116,-12.4806091595907
115,-14.9499692910705
114,-17.4305013362434
113,-19.9127626838118
112,-22.3967646732473
111,-25.1542058462558
110,-28.9592015218964
109,-32.8794299964091
108,-36.8512849369025
107,-40.7666543589684
106,-44.6178158723289
105,-47.9105007590501
104,-51.0580312125773
103,-54.2064054018767
102,-57.3556341429216
101,-59.9261564738443
100,-62.4985041813577
