Created as New Dataset,
Raman Shift / cm-1,INT
3200.00,12
3199.00,26
3198.00,71
3197.00,119
3196.00,165
3195.00,175
3194.00,175
3193.00,175
3192.00,139
3191.00,52
3190.00,24
3189.00,25
3188.00,26
3187.00,28
3186.00,31
3185.00,57
3184.00,101
3183.00,115
3182.00,116
3181.00,112
3180.00,95
3179.00,55
3178.00,36
3177.00,36
3176.00,37
3175.00,38
3174.00,39
3173.00,39
3172.00,39
3171.00,83
3170.00,156
3169.00,146
3168.00,120
3167.00,149
3166.00,164
3165.00,128
3164.00,112
3163.00,112
3162.00,89
3161.00,51
3160.00,-15
3159.00,-85
3158.00,-150
3157.00,-153
3156.00,-83
3155.00,-14
3154.00,45
3153.00,30
3152.00,-20
3151.00,-142
3150.00,-210
3149.00,-180
3148.00,-129
3147.00,-63
3146.00,0
3145.00,119
3144.00,588
3143.00,871
3142.00,484
3141.00,242
3140.00,270
3139.00,317
3138.00,370
3137.00,382
3136.00,354
3135.00,177
3134.00,27
3133.00,20
3132.00,21
3131.00,22
3130.00,7
3129.00,-19
3128.00,-26
3127.00,-26
3126.00,-25
3125.00,-16
3124.00,10
3123.00,46
3122.00,98
3121.00,122
3120.00,123
3119.00,141
3118.00,164
3117.00,168
3116.00,167
3115.00,167
3114.00,160
3113.00,136
3112.00,131
3111.00,154
3110.00,147
3109.00,117
3108.00,111
3107.00,112
3106.00,95
3105.00,78
3104.00,76
3103.00,76
3102.00,77
3101.00,85
3100.00,108
3099.00,107
3098.00,84
3097.00,48
3096.00,10
3095.00,50
3094.00,116
3093.00,181
3092.00,234
3091.00,238
3090.00,219
3089.00,156
3088.00,117
3087.00,117
3086.00,106
3085.00,85
3084.00,77
3083.00,77
3082.00,77
3081.00,77
3080.00,77
3079.00,74
3078.00,57
3077.00,46
3076.00,63
3075.00,70
3074.00,51
3073.00,47
3072.00,67
3071.00,96
3070.00,134
3069.00,160
3068.00,177
3067.00,155
3066.00,119
3065.00,111
3064.00,107
3063.00,76
3062.00,45
3061.00,41
3060.00,40
3059.00,40
3058.00,46
3057.00,63
3056.00,80
3055.00,98
3054.00,140
3053.00,208
3052.00,240
3051.00,239
3050.00,248
3049.00,264
3048.00,268
3047.00,267
3046.00,266
3045.00,257
3044.00,176
3043.00,89
3042.00,89
3041.00,98
3040.00,71
3039.00,50
3038.00,78
3037.00,106
3036.00,122
3035.00,132
3034.00,132
3033.00,127
3032.00,111
3031.00,107
3030.00,121
3029.00,143
3028.00,173
3027.00,187
3026.00,187
3025.00,194
3024.00,209
3023.00,322
3022.00,491
3021.00,466
3020.00,337
3019.00,294
3018.00,293
3017.00,313
3016.00,332
3015.00,232
3014.00,102
3013.00,103
3012.00,141
3011.00,149
3010.00,147
3009.00,135
3008.00,124
3007.00,132
3006.00,144
3005.00,145
3004.00,144
3003.00,144
3002.00,143
3001.00,143
3000.00,142
2999.00,141
2998.00,137
2997.00,113
2996.00,96
2995.00,116
2994.00,132
2993.00,111
2992.00,92
2991.00,101
2990.00,111
2989.00,112
2988.00,111
2987.00,111
2986.00,112
2985.00,123
2984.00,134
2983.00,145
2982.00,154
2981.00,154
2980.00,151
2979.00,140
2978.00,130
2977.00,128
2976.00,132
2975.00,153
2974.00,167
2973.00,147
2972.00,131
2971.00,150
2970.00,168
2969.00,169
2968.00,168
2967.00,167
2966.00,165
2965.00,154
2964.00,144
2963.00,142
2962.00,142
2961.00,141
2960.00,140
2959.00,140
2958.00,137
2957.00,118
2956.00,100
2955.00,104
2954.00,113
2953.00,115
2952.00,112
2951.00,88
2950.00,59
2949.00,51
2948.00,52
2947.00,73
2946.00,102
2945.00,110
2944.00,110
2943.00,116
2942.00,125
2941.00,128
2940.00,127
2939.00,127
2938.00,126
2937.00,130
2936.00,139
2935.00,122
2934.00,74
2933.00,47
2932.00,46
2931.00,49
2930.00,58
2929.00,69
2928.00,87
2927.00,100
2926.00,100
2925.00,103
2924.00,119
2923.00,134
2922.00,144
2921.00,151
2920.00,151
2919.00,150
2918.00,149
2917.00,149
2916.00,148
2915.00,146
2914.00,115
2913.00,73
2912.00,57
2911.00,57
2910.00,71
2909.00,95
2908.00,100
2907.00,83
2906.00,70
2905.00,61
2904.00,52
2903.00,44
2902.00,38
2901.00,37
2900.00,37
2899.00,36
2898.00,37
2897.00,43
2896.00,50
2895.00,45
2894.00,37
2893.00,46
2892.00,60
2891.00,75
2890.00,90
2889.00,97
2888.00,96
2887.00,92
2886.00,85
2885.00,81
2884.00,88
2883.00,90
2882.00,76
2881.00,66
2880.00,83
2879.00,103
2878.00,106
2877.00,105
2876.00,104
2875.00,104
2874.00,103
2873.00,103
2872.00,102
2871.00,101
2870.00,101
2869.00,100
2868.00,98
2867.00,91
2866.00,82
2865.00,69
2864.00,56
2863.00,53
2862.00,53
2861.00,58
2860.00,64
2859.00,66
2858.00,65
2857.00,71
2856.00,84
2855.00,94
2854.00,100
2853.00,104
2852.00,104
2851.00,104
2850.00,109
2849.00,113
2848.00,99
2847.00,80
2846.00,89
2845.00,113
2844.00,117
2843.00,97
2842.00,84
2841.00,84
2840.00,82
2839.00,76
2838.00,69
2837.00,63
2836.00,56
2835.00,45
2834.00,33
2833.00,35
2832.00,46
2831.00,57
2830.00,68
2829.00,76
2828.00,76
2827.00,75
2826.00,69
2825.00,65
2824.00,76
2823.00,92
2822.00,98
2821.00,97
2820.00,89
2819.00,72
2818.00,59
2817.00,58
2816.00,59
2815.00,68
2814.00,78
2813.00,76
2812.00,70
2811.00,61
2810.00,50
2809.00,45
2808.00,50
2807.00,54
2806.00,59
2805.00,64
2804.00,69
2803.00,73
2802.00,74
2801.00,73
2800.00,75
2799.00,80
2798.00,83
2797.00,82
2796.00,83
2795.00,92
2794.00,101
2793.00,106
2792.00,111
2791.00,100
2790.00,80
2789.00,72
2788.00,86
2787.00,98
2786.00,103
2785.00,106
2784.00,95
2783.00,80
2782.00,71
2781.00,66
2780.00,62
2779.00,62
2778.00,63
2777.00,71
2776.00,79
2775.00,72
2774.00,63
2773.00,67
2772.00,80
2771.00,93
2770.00,106
2769.00,116
2768.00,112
2767.00,106
2766.00,94
2765.00,80
2764.00,81
2763.00,94
2762.00,96
2761.00,74
2760.00,53
2759.00,38
2758.00,25
2757.00,33
2756.00,50
2755.00,59
2754.00,59
2753.00,54
2752.00,37
2751.00,21
2750.00,18
2749.00,17
2748.00,25
2747.00,37
2746.00,46
2745.00,50
2744.00,51
2743.00,40
2742.00,28
2741.00,27
2740.00,30
2739.00,34
2738.00,37
2737.00,39
2736.00,31
2735.00,21
2734.00,-16
2733.00,-60
2732.00,-60
2731.00,-21
2730.00,13
2729.00,34
2728.00,51
2727.00,57
2726.00,61
2725.00,69
2724.00,79
2723.00,87
2722.00,87
2721.00,86
2720.00,89
2719.00,92
2718.00,93
2717.00,92
2716.00,89
2715.00,81
2714.00,73
2713.00,62
2712.00,50
2711.00,46
2710.00,45
2709.00,46
2708.00,49
2707.00,52
2706.00,52
2705.00,51
2704.00,51
2703.00,50
2702.00,53
2701.00,63
2700.00,72
2699.00,73
2698.00,72
2697.00,70
2696.00,66
2695.00,60
2694.00,49
2693.00,39
2692.00,36
2691.00,36
2690.00,37
2689.00,40
2688.00,41
2687.00,34
2686.00,27
2685.00,25
2684.00,25
2683.00,26
2682.00,29
2681.00,32
2680.00,38
2679.00,44
2678.00,43
2677.00,40
2676.00,37
2675.00,37
2674.00,37
2673.00,42
2672.00,48
2671.00,50
2670.00,50
2669.00,50
2668.00,52
2667.00,55
2666.00,58
2665.00,60
2664.00,59
2663.00,52
2662.00,47
2661.00,52
2660.00,57
2659.00,60
2658.00,61
2657.00,62
2656.00,59
2655.00,56
2654.00,43
2653.00,27
2652.00,19
2651.00,18
2650.00,18
2649.00,17
2648.00,17
2647.00,19
2646.00,21
2645.00,22
2644.00,19
2643.00,16
2642.00,22
2641.00,30
2640.00,31
2639.00,22
2638.00,14
2637.00,12
2636.00,12
2635.00,13
2634.00,16
2633.00,20
2632.00,33
2631.00,46
2630.00,50
2629.00,49
2628.00,49
2627.00,48
2626.00,48
2625.00,48
2624.00,47
2623.00,46
2622.00,46
2621.00,45
2620.00,40
2619.00,34
2618.00,31
2617.00,30
2616.00,30
2615.00,32
2614.00,35
2613.00,33
2612.00,30
2611.00,30
2610.00,37
2609.00,44
2608.00,40
2607.00,32
2606.00,29
2605.00,38
2604.00,48
2603.00,49
2602.00,49
2601.00,48
2600.00,48
2599.00,47
2598.00,42
2597.00,37
2596.00,36
2595.00,40
2594.00,43
2593.00,39
2592.00,34
2591.00,27
2590.00,20
2589.00,12
2588.00,9
2587.00,6
2586.00,1
2585.00,-7
2584.00,-12
2583.00,-7
2582.00,0
2581.00,8
2580.00,17
2579.00,23
2578.00,12
2577.00,0
2576.00,1
2575.00,10
2574.00,17
2573.00,20
2572.00,22
2571.00,26
2570.00,33
2569.00,37
2568.00,30
2567.00,23
2566.00,20
2565.00,19
2564.00,18
2563.00,16
2562.00,13
2561.00,12
2560.00,12
2559.00,11
2558.00,8
2557.00,6
2556.00,17
2555.00,38
2554.00,56
2553.00,54
2552.00,49
2551.00,48
2550.00,50
2549.00,51
2548.00,49
2547.00,46
2546.00,40
2545.00,31
2544.00,23
2543.00,21
2542.00,21
2541.00,21
2540.00,23
2539.00,24
2538.00,21
2537.00,16
2536.00,15
2535.00,21
2534.00,27
2533.00,31
2532.00,35
2531.00,36
2530.00,31
2529.00,27
2528.00,25
2527.00,25
2526.00,24
2525.00,22
2524.00,19
2523.00,15
2522.00,8
2521.00,4
2520.00,8
2519.00,14
2518.00,17
2517.00,18
2516.00,20
2515.00,18
2514.00,15
2513.00,14
2512.00,14
2511.00,13
2510.00,11
2509.00,9
2508.00,7
2507.00,7
2506.00,6
2505.00,6
2504.00,6
2503.00,6
2502.00,9
2501.00,12
2500.00,15
2499.00,16
2498.00,17
2497.00,17
2496.00,17
2495.00,17
2494.00,16
2493.00,16
2492.00,18
2491.00,22
2490.00,23
2489.00,20
2488.00,16
2487.00,16
2486.00,19
2485.00,22
2484.00,22
2483.00,21
2482.00,22
2481.00,25
2480.00,28
2479.00,29
2478.00,28
2477.00,27
2476.00,23
2475.00,19
2474.00,13
2473.00,6
2472.00,-0
2471.00,-2
2470.00,-2
2469.00,-3
2468.00,-3
2467.00,-3
2466.00,-5
2465.00,-7
2464.00,-9
2463.00,-11
2462.00,-13
2461.00,-13
2460.00,-12
2459.00,-10
2458.00,-1
2457.00,8
2456.00,15
2455.00,13
2454.00,11
2453.00,11
2452.00,12
2451.00,13
2450.00,13
2449.00,13
2448.00,14
2447.00,18
2446.00,22
2445.00,23
2444.00,21
2443.00,19
2442.00,20
2441.00,21
2440.00,22
2439.00,21
2438.00,21
2437.00,21
2436.00,20
2435.00,20
2434.00,19
2433.00,19
2432.00,18
2431.00,16
2430.00,14
2429.00,10
2428.00,5
2427.00,1
2426.00,0
2425.00,-0
2424.00,-2
2423.00,-7
2422.00,-12
2421.00,-10
2420.00,-6
2419.00,-2
2418.00,-2
2417.00,-3
2416.00,-4
2415.00,-5
2414.00,-7
2413.00,-10
2412.00,-14
2411.00,-16
2410.00,-14
2409.00,-11
2408.00,-10
2407.00,-14
2406.00,-17
2405.00,-11
2404.00,-1
2403.00,8
2402.00,12
2401.00,14
2400.00,16
2399.00,16
2398.00,15
2397.00,14
2396.00,12
2395.00,11
2394.00,10
2393.00,10
2392.00,9
2391.00,9
2390.00,8
2389.00,7
2388.00,6
2387.00,4
2386.00,5
2385.00,6
2384.00,6
2383.00,5
2382.00,3
2381.00,2
2380.00,1
2379.00,1
2378.00,1
2377.00,2
2376.00,3
2375.00,3
2374.00,3
2373.00,1
2372.00,-3
2371.00,-7
2370.00,-9
2369.00,-10
2368.00,-10
2367.00,-10
2366.00,-10
2365.00,-11
2364.00,-14
2363.00,-17
2362.00,-19
2361.00,-19
2360.00,-19
2359.00,-14
2358.00,-3
2357.00,7
2356.00,12
2355.00,16
2354.00,18
2353.00,13
2352.00,7
2351.00,5
2350.00,8
2349.00,11
2348.00,13
2347.00,13
2346.00,13
2345.00,12
2344.00,12
2343.00,11
2342.00,11
2341.00,11
2340.00,11
2339.00,12
2338.00,13
2337.00,12
2336.00,11
2335.00,9
2334.00,9
2333.00,8
2332.00,8
2331.00,9
2330.00,10
2329.00,10
2328.00,10
2327.00,10
2326.00,9
2325.00,6
2324.00,3
2323.00,2
2322.00,2
2321.00,1
2320.00,0
2319.00,-1
2318.00,-3
2317.00,-4
2316.00,-5
2315.00,-6
2314.00,-4
2313.00,-2
2312.00,1
2311.00,3
2310.00,5
2309.00,3
2308.00,-1
2307.00,-4
2306.00,-2
2305.00,1
2304.00,4
2303.00,5
2302.00,6
2301.00,7
2300.00,8
2299.00,9
2298.00,11
2297.00,13
2296.00,15
2295.00,16
2294.00,17
2293.00,18
2292.00,18
2291.00,18
2290.00,17
2289.00,14
2288.00,10
2287.00,7
2286.00,7
2285.00,7
2284.00,6
2283.00,3
2282.00,0
2281.00,-2
2280.00,-5
2279.00,-7
2278.00,-8
2277.00,-7
2276.00,-6
2275.00,-6
2274.00,-6
2273.00,-6
2272.00,-5
2271.00,-4
2270.00,-4
2269.00,-5
2268.00,-7
2267.00,-7
2266.00,-5
2265.00,-2
2264.00,-3
2263.00,-7
2262.00,-10
2261.00,-12
2260.00,-12
2259.00,-12
2258.00,-12
2257.00,-12
2256.00,-13
2255.00,-14
2254.00,-15
2253.00,-17
2252.00,-17
2251.00,-17
2250.00,-17
2249.00,-18
2248.00,-18
2247.00,-15
2246.00,-7
2245.00,2
2244.00,3
2243.00,-4
2242.00,-10
2241.00,-9
2240.00,-2
2239.00,4
2238.00,7
2237.00,9
2236.00,11
2235.00,10
2234.00,9
2233.00,7
2232.00,-2
2231.00,-12
2230.00,-20
2229.00,-18
2228.00,-15
2227.00,-11
2226.00,-7
2225.00,-3
2224.00,-3
2223.00,-10
2222.00,-18
2221.00,-22
2220.00,-21
2219.00,-21
2218.00,-18
2217.00,-14
2216.00,-10
2215.00,-7
2214.00,-5
2213.00,-3
2212.00,-6
2211.00,-11
2210.00,-17
2209.00,-16
2208.00,-13
2207.00,-10
2206.00,-9
2205.00,-10
2204.00,-10
2203.00,-10
2202.00,-10
2201.00,-11
2200.00,-13
2199.00,-15
2198.00,-17
2197.00,-17
2196.00,-17
2195.00,-17
2194.00,-18
2193.00,-18
2192.00,-17
2191.00,-13
2190.00,-9
2189.00,-6
2188.00,-3
2187.00,0
2186.00,1
2185.00,-2
2184.00,-6
2183.00,-6
2182.00,-3
2181.00,-0
2180.00,0
2179.00,-1
2178.00,-2
2177.00,-2
2176.00,-1
2175.00,-0
2174.00,-0
2173.00,-0
2172.00,-1
2171.00,-1
2170.00,-1
2169.00,-1
2168.00,-1
2167.00,-1
2166.00,-2
2165.00,-2
2164.00,-2
2163.00,-2
2162.00,-1
2161.00,1
2160.00,3
2159.00,5
2158.00,7
2157.00,8
2156.00,10
2155.00,12
2154.00,13
2153.00,10
2152.00,6
2151.00,2
2150.00,1
2149.00,1
2148.00,1
2147.00,-1
2146.00,-2
2145.00,-3
2144.00,-3
2143.00,-3
2142.00,-3
2141.00,-4
2140.00,-4
2139.00,-5
2138.00,-5
2137.00,-5
2136.00,-5
2135.00,-6
2134.00,-6
2133.00,-6
2132.00,-8
2131.00,-9
2130.00,-9
2129.00,-8
2128.00,-7
2127.00,-6
2126.00,-6
2125.00,-6
2124.00,-6
2123.00,-5
2122.00,-4
2121.00,-3
2120.00,-1
2119.00,0
2118.00,1
2117.00,2
2116.00,2
2115.00,3
2114.00,3
2113.00,2
2112.00,2
2111.00,1
2110.00,1
2109.00,0
2108.00,-0
2107.00,-1
2106.00,-1
2105.00,-1
2104.00,-1
2103.00,-0
2102.00,0
2101.00,1
2100.00,3
2099.00,4
2098.00,6
2097.00,8
2096.00,8
2095.00,7
2094.00,7
2093.00,6
2092.00,5
2091.00,5
2090.00,5
2089.00,6
2088.00,7
2087.00,7
2086.00,8
2085.00,8
2084.00,6
2083.00,3
2082.00,-0
2081.00,-2
2080.00,-3
2079.00,-3
2078.00,-4
2077.00,-4
2076.00,-5
2075.00,-5
2074.00,-6
2073.00,-7
2072.00,-7
2071.00,-6
2070.00,-5
2069.00,-3
2068.00,3
2067.00,9
2066.00,14
2065.00,16
2064.00,18
2063.00,19
2062.00,19
2061.00,18
2060.00,17
2059.00,15
2058.00,12
2057.00,10
2056.00,9
2055.00,8
2054.00,6
2053.00,3
2052.00,-0
2051.00,-3
2050.00,-4
2049.00,-5
2048.00,-5
2047.00,-5
2046.00,-6
2045.00,-7
2044.00,-6
2043.00,-4
2042.00,-2
2041.00,-1
2040.00,-1
2039.00,-1
2038.00,1
2037.00,5
2036.00,9
2035.00,11
2034.00,10
2033.00,10
2032.00,10
2031.00,11
2030.00,12
2029.00,13
2028.00,10
2027.00,8
2026.00,6
2025.00,5
2024.00,4
2023.00,3
2022.00,4
2021.00,6
2020.00,8
2019.00,6
2018.00,3
2017.00,0
2016.00,-1
2015.00,-1
2014.00,-2
2013.00,2
2012.00,9
2011.00,16
2010.00,20
2009.00,22
2008.00,24
2007.00,25
2006.00,25
2005.00,24
2004.00,24
2003.00,26
2002.00,29
2001.00,31
2000.00,31
1999.00,30
1998.00,29
1997.00,28
1996.00,26
1995.00,25
1994.00,23
1993.00,21
1992.00,18
1991.00,17
1990.00,17
1989.00,16
1988.00,16
1987.00,16
1986.00,15
1985.00,15
1984.00,13
1983.00,12
1982.00,10
1981.00,10
1980.00,10
1979.00,9
1978.00,11
1977.00,12
1976.00,14
1975.00,14
1974.00,14
1973.00,14
1972.00,14
1971.00,13
1970.00,13
1969.00,14
1968.00,17
1967.00,19
1966.00,21
1965.00,21
1964.00,22
1963.00,22
1962.00,21
1961.00,21
1960.00,20
1959.00,20
1958.00,20
1957.00,20
1956.00,20
1955.00,19
1954.00,19
1953.00,19
1952.00,18
1951.00,18
1950.00,18
1949.00,18
1948.00,17
1947.00,17
1946.00,16
1945.00,15
1944.00,14
1943.00,14
1942.00,13
1941.00,12
1940.00,12
1939.00,13
1938.00,13
1937.00,13
1936.00,12
1935.00,12
1934.00,11
1933.00,11
1932.00,11
1931.00,12
1930.00,15
1929.00,20
1928.00,24
1927.00,27
1926.00,28
1925.00,29
1924.00,29
1923.00,29
1922.00,28
1921.00,28
1920.00,28
1919.00,29
1918.00,30
1917.00,29
1916.00,28
1915.00,26
1914.00,26
1913.00,25
1912.00,25
1911.00,24
1910.00,22
1909.00,21
1908.00,20
1907.00,21
1906.00,22
1905.00,23
1904.00,24
1903.00,26
1902.00,27
1901.00,27
1900.00,27
1899.00,27
1898.00,29
1897.00,33
1896.00,37
1895.00,40
1894.00,40
1893.00,41
1892.00,41
1891.00,41
1890.00,41
1889.00,40
1888.00,40
1887.00,39
1886.00,38
1885.00,38
1884.00,39
1883.00,39
1882.00,40
1881.00,39
1880.00,39
1879.00,39
1878.00,39
1877.00,39
1876.00,39
1875.00,39
1874.00,39
1873.00,39
1872.00,39
1871.00,39
1870.00,40
1869.00,40
1868.00,39
1867.00,39
1866.00,39
1865.00,38
1864.00,38
1863.00,37
1862.00,37
1861.00,36
1860.00,35
1859.00,34
1858.00,34
1857.00,34
1856.00,34
1855.00,33
1854.00,32
1853.00,32
1852.00,32
1851.00,33
1850.00,34
1849.00,35
1848.00,36
1847.00,37
1846.00,38
1845.00,37
1844.00,36
1843.00,35
1842.00,35
1841.00,34
1840.00,34
1839.00,34
1838.00,34
1837.00,33
1836.00,33
1835.00,32
1834.00,30
1833.00,29
1832.00,29
1831.00,29
1830.00,30
1829.00,30
1828.00,30
1827.00,30
1826.00,29
1825.00,30
1824.00,30
1823.00,31
1822.00,33
1821.00,36
1820.00,39
1819.00,42
1818.00,46
1817.00,49
1816.00,52
1815.00,50
1814.00,47
1813.00,44
1812.00,43
1811.00,43
1810.00,43
1809.00,44
1808.00,46
1807.00,47
1806.00,49
1805.00,49
1804.00,49
1803.00,48
1802.00,48
1801.00,47
1800.00,46
1799.00,46
1798.00,45
1797.00,44
1796.00,43
1795.00,43
1794.00,42
1793.00,42
1792.00,42
1791.00,42
1790.00,42
1789.00,42
1788.00,42
1787.00,42
1786.00,42
1785.00,42
1784.00,43
1783.00,44
1782.00,44
1781.00,44
1780.00,43
1779.00,43
1778.00,42
1777.00,42
1776.00,42
1775.00,42
1774.00,42
1773.00,42
1772.00,41
1771.00,40
1770.00,38
1769.00,37
1768.00,36
1767.00,36
1766.00,36
1765.00,37
1764.00,41
1763.00,44
1762.00,47
1761.00,48
1760.00,48
1759.00,48
1758.00,47
1757.00,47
1756.00,46
1755.00,45
1754.00,46
1753.00,46
1752.00,46
1751.00,47
1750.00,47
1749.00,47
1748.00,47
1747.00,48
1746.00,50
1745.00,51
1744.00,51
1743.00,50
1742.00,50
1741.00,50
1740.00,49
1739.00,49
1738.00,49
1737.00,50
1736.00,50
1735.00,51
1734.00,51
1733.00,51
1732.00,51
1731.00,51
1730.00,53
1729.00,55
1728.00,58
1727.00,58
1726.00,58
1725.00,58
1724.00,58
1723.00,58
1722.00,58
1721.00,58
1720.00,57
1719.00,56
1718.00,56
1717.00,55
1716.00,54
1715.00,53
1714.00,53
1713.00,53
1712.00,54
1711.00,54
1710.00,55
1709.00,56
1708.00,56
1707.00,57
1706.00,57
1705.00,56
1704.00,56
1703.00,56
1702.00,56
1701.00,55
1700.00,55
1699.00,55
1698.00,55
1697.00,56
1696.00,56
1695.00,56
1694.00,57
1693.00,57
1692.00,56
1691.00,54
1690.00,52
1689.00,52
1688.00,52
1687.00,52
1686.00,53
1685.00,53
1684.00,53
1683.00,54
1682.00,53
1681.00,52
1680.00,50
1679.00,49
1678.00,49
1677.00,48
1676.00,48
1675.00,48
1674.00,50
1673.00,51
1672.00,52
1671.00,53
1670.00,54
1669.00,55
1668.00,56
1667.00,57
1666.00,58
1665.00,59
1664.00,59
1663.00,59
1662.00,59
1661.00,60
1660.00,61
1659.00,62
1658.00,63
1657.00,63
1656.00,64
1655.00,64
1654.00,64
1653.00,64
1652.00,63
1651.00,63
1650.00,63
1649.00,62
1648.00,61
1647.00,61
1646.00,60
1645.00,59
1644.00,59
1643.00,58
1642.00,58
1641.00,57
1640.00,57
1639.00,57
1638.00,57
1637.00,58
1636.00,58
1635.00,58
1634.00,59
1633.00,59
1632.00,60
1631.00,60
1630.00,60
1629.00,60
1628.00,60
1627.00,60
1626.00,60
1625.00,59
1624.00,59
1623.00,58
1622.00,58
1621.00,58
1620.00,59
1619.00,59
1618.00,60
1617.00,61
1616.00,62
1615.00,63
1614.00,63
1613.00,64
1612.00,64
1611.00,65
1610.00,65
1609.00,66
1608.00,66
1607.00,68
1606.00,69
1605.00,71
1604.00,72
1603.00,74
1602.00,76
1601.00,77
1600.00,77
1599.00,77
1598.00,76
1597.00,76
1596.00,75
1595.00,74
1594.00,73
1593.00,73
1592.00,73
1591.00,73
1590.00,73
1589.00,72
1588.00,70
1587.00,68
1586.00,66
1585.00,63
1584.00,60
1583.00,58
1582.00,59
1581.00,61
1580.00,63
1579.00,65
1578.00,66
1577.00,68
1576.00,69
1575.00,69
1574.00,68
1573.00,67
1572.00,66
1571.00,66
1570.00,67
1569.00,67
1568.00,67
1567.00,66
1566.00,66
1565.00,66
1564.00,65
1563.00,65
1562.00,64
1561.00,64
1560.00,63
1559.00,63
1558.00,62
1557.00,61
1556.00,61
1555.00,60
1554.00,60
1553.00,61
1552.00,62
1551.00,63
1550.00,63
1549.00,63
1548.00,62
1547.00,62
1546.00,62
1545.00,63
1544.00,64
1543.00,64
1542.00,62
1541.00,60
1540.00,58
1539.00,57
1538.00,59
1537.00,60
1536.00,62
1535.00,62
1534.00,62
1533.00,63
1532.00,63
1531.00,64
1530.00,65
1529.00,66
1528.00,66
1527.00,67
1526.00,67
1525.00,67
1524.00,67
1523.00,67
1522.00,67
1521.00,68
1520.00,69
1519.00,69
1518.00,70
1517.00,70
1516.00,70
1515.00,69
1514.00,69
1513.00,69
1512.00,69
1511.00,69
1510.00,68
1509.00,68
1508.00,67
1507.00,66
1506.00,66
1505.00,67
1504.00,68
1503.00,69
1502.00,69
1501.00,69
1500.00,69
1499.00,68
1498.00,68
1497.00,68
1496.00,68
1495.00,68
1494.00,69
1493.00,69
1492.00,70
1491.00,70
1490.00,70
1489.00,69
1488.00,69
1487.00,68
1486.00,67
1485.00,67
1484.00,66
1483.00,65
1482.00,64
1481.00,64
1480.00,63
1479.00,62
1478.00,61
1477.00,61
1476.00,60
1475.00,60
1474.00,59
1473.00,59
1472.00,58
1471.00,57
1470.00,56
1469.00,56
1468.00,56
1467.00,56
1466.00,56
1465.00,59
1464.00,63
1463.00,68
1462.00,72
1461.00,73
1460.00,73
1459.00,73
1458.00,72
1457.00,70
1456.00,69
1455.00,67
1454.00,65
1453.00,65
1452.00,65
1451.00,64
1450.00,64
1449.00,63
1448.00,62
1447.00,61
1446.00,60
1445.00,60
1444.00,59
1443.00,58
1442.00,58
1441.00,57
1440.00,56
1439.00,56
1438.00,56
1437.00,56
1436.00,57
1435.00,58
1434.00,59
1433.00,61
1432.00,62
1431.00,62
1430.00,62
1429.00,61
1428.00,61
1427.00,60
1426.00,60
1425.00,60
1424.00,60
1423.00,60
1422.00,61
1421.00,61
1420.00,61
1419.00,61
1418.00,61
1417.00,61
1416.00,62
1415.00,63
1414.00,64
1413.00,65
1412.00,65
1411.00,65
1410.00,65
1409.00,65
1408.00,64
1407.00,64
1406.00,64
1405.00,64
1404.00,65
1403.00,66
1402.00,67
1401.00,68
1400.00,68
1399.00,69
1398.00,70
1397.00,70
1396.00,69
1395.00,69
1394.00,69
1393.00,68
1392.00,68
1391.00,68
1390.00,67
1389.00,67
1388.00,67
1387.00,67
1386.00,66
1385.00,67
1384.00,67
1383.00,67
1382.00,66
1381.00,65
1380.00,64
1379.00,63
1378.00,62
1377.00,61
1376.00,61
1375.00,60
1374.00,61
1373.00,63
1372.00,64
1371.00,65
1370.00,66
1369.00,66
1368.00,66
1367.00,66
1366.00,65
1365.00,64
1364.00,63
1363.00,62
1362.00,63
1361.00,65
1360.00,66
1359.00,66
1358.00,66
1357.00,65
1356.00,65
1355.00,67
1354.00,70
1353.00,73
1352.00,76
1351.00,76
1350.00,74
1349.00,72
1348.00,71
1347.00,71
1346.00,71
1345.00,72
1344.00,72
1343.00,72
1342.00,72
1341.00,71
1340.00,71
1339.00,71
1338.00,70
1337.00,70
1336.00,69
1335.00,68
1334.00,67
1333.00,65
1332.00,63
1331.00,61
1330.00,58
1329.00,56
1328.00,54
1327.00,54
1326.00,54
1325.00,54
1324.00,54
1323.00,55
1322.00,56
1321.00,57
1320.00,57
1319.00,57
1318.00,56
1317.00,56
1316.00,56
1315.00,56
1314.00,56
1313.00,56
1312.00,56
1311.00,56
1310.00,56
1309.00,56
1308.00,56
1307.00,57
1306.00,57
1305.00,58
1304.00,60
1303.00,61
1302.00,62
1301.00,63
1300.00,63
1299.00,63
1298.00,63
1297.00,63
1296.00,63
1295.00,63
1294.00,63
1293.00,62
1292.00,61
1291.00,61
1290.00,60
1289.00,58
1288.00,56
1287.00,54
1286.00,51
1285.00,50
1284.00,48
1283.00,47
1282.00,46
1281.00,46
1280.00,45
1279.00,45
1278.00,45
1277.00,45
1276.00,45
1275.00,44
1274.00,44
1273.00,44
1272.00,43
1271.00,43
1270.00,43
1269.00,43
1268.00,45
1267.00,46
1266.00,47
1265.00,48
1264.00,50
1263.00,52
1262.00,53
1261.00,53
1260.00,52
1259.00,52
1258.00,51
1257.00,51
1256.00,51
1255.00,51
1254.00,51
1253.00,51
1252.00,50
1251.00,50
1250.00,49
1249.00,48
1248.00,46
1247.00,45
1246.00,44
1245.00,43
1244.00,43
1243.00,43
1242.00,42
1241.00,43
1240.00,43
1239.00,43
1238.00,43
1237.00,43
1236.00,42
1235.00,41
1234.00,40
1233.00,40
1232.00,40
1231.00,40
1230.00,39
1229.00,40
1228.00,41
1227.00,41
1226.00,42
1225.00,41
1224.00,40
1223.00,39
1222.00,38
1221.00,37
1220.00,36
1219.00,34
1218.00,33
1217.00,32
1216.00,31
1215.00,30
1214.00,30
1213.00,30
1212.00,30
1211.00,30
1210.00,31
1209.00,30
1208.00,29
1207.00,28
1206.00,27
1205.00,27
1204.00,28
1203.00,29
1202.00,29
1201.00,28
1200.00,27
1199.00,26
1198.00,25
1197.00,25
1196.00,24
1195.00,24
1194.00,24
1193.00,23
1192.00,22
1191.00,21
1190.00,21
1189.00,21
1188.00,21
1187.00,22
1186.00,22
1185.00,22
1184.00,21
1183.00,21
1182.00,20
1181.00,20
1180.00,19
1179.00,19
1178.00,19
1177.00,18
1176.00,18
1175.00,17
1174.00,17
1173.00,17
1172.00,18
1171.00,19
1170.00,20
1169.00,21
1168.00,21
1167.00,20
1166.00,20
1165.00,22
1164.00,24
1163.00,27
1162.00,29
1161.00,30
1160.00,30
1159.00,29
1158.00,29
1157.00,29
1156.00,28
1155.00,28
1154.00,28
1153.00,27
1152.00,27
1151.00,27
1150.00,27
1149.00,27
1148.00,26
1147.00,26
1146.00,25
1145.00,24
1144.00,24
1143.00,23
1142.00,23
1141.00,23
1140.00,22
1139.00,22
1138.00,22
1137.00,22
1136.00,22
1135.00,21
1134.00,21
1133.00,20
1132.00,20
1131.00,19
1130.00,19
1129.00,19
1128.00,19
1127.00,19
1126.00,18
1125.00,18
1124.00,18
1123.00,18
1122.00,18
1121.00,17
1120.00,17
1119.00,17
1118.00,16
1117.00,16
1116.00,16
1115.00,15
1114.00,15
1113.00,15
1112.00,15
1111.00,16
1110.00,17
1109.00,19
1108.00,20
1107.00,20
1106.00,20
1105.00,20
1104.00,20
1103.00,20
1102.00,19
1101.00,19
1100.00,18
1099.00,18
1098.00,17
1097.00,17
1096.00,16
1095.00,15
1094.00,14
1093.00,12
1092.00,11
1091.00,10
1090.00,9
1089.00,8
1088.00,7
1087.00,7
1086.00,6
1085.00,6
1084.00,6
1083.00,5
1082.00,5
1081.00,5
1080.00,5
1079.00,4
1078.00,3
1077.00,2
1076.00,0
1075.00,-1
1074.00,1
1073.00,3
1072.00,5
1071.00,7
1070.00,8
1069.00,8
1068.00,9
1067.00,10
1066.00,9
1065.00,8
1064.00,7
1063.00,6
1062.00,5
1061.00,5
1060.00,5
1059.00,5
1058.00,5
1057.00,5
1056.00,5
1055.00,4
1054.00,4
1053.00,4
1052.00,4
1051.00,5
1050.00,5
1049.00,5
1048.00,4
1047.00,4
1046.00,4
1045.00,5
1044.00,6
1043.00,7
1042.00,8
1041.00,8
1040.00,8
1039.00,7
1038.00,7
1037.00,6
1036.00,6
1035.00,5
1034.00,5
1033.00,5
1032.00,4
1031.00,4
1030.00,4
1029.00,4
1028.00,4
1027.00,5
1026.00,6
1025.00,6
1024.00,7
1023.00,6
1022.00,6
1021.00,6
1020.00,5
1019.00,4
1018.00,3
1017.00,2
1016.00,1
1015.00,0
1014.00,0
1013.00,-0
1012.00,-0
1011.00,-1
1010.00,-1
1009.00,-2
1008.00,-2
1007.00,-2
1006.00,-2
1005.00,-2
1004.00,-2
1003.00,-1
1002.00,1
1001.00,2
1000.00,4
999.00,5
998.00,5
997.00,5
996.00,4
995.00,4
994.00,3
993.00,3
992.00,2
991.00,2
990.00,2
989.00,2
988.00,2
987.00,2
986.00,2
985.00,1
984.00,1
983.00,1
982.00,0
981.00,0
980.00,-0
979.00,-1
978.00,-1
977.00,-2
976.00,-2
975.00,-2
974.00,-3
973.00,-2
972.00,-0
971.00,1
970.00,3
969.00,3
968.00,3
967.00,3
966.00,2
965.00,2
964.00,2
963.00,2
962.00,2
961.00,1
960.00,1
959.00,1
958.00,0
957.00,0
956.00,-0
955.00,-0
954.00,-0
953.00,-1
952.00,-1
951.00,-1
950.00,-1
949.00,-2
948.00,-2
947.00,-3
946.00,-4
945.00,-6
944.00,-7
943.00,-7
942.00,-8
941.00,-8
940.00,-9
939.00,-8
938.00,-7
937.00,-6
936.00,-5
935.00,-4
934.00,-4
933.00,-5
932.00,-5
931.00,-6
930.00,-5
929.00,-4
928.00,-3
927.00,-2
926.00,-2
925.00,-2
924.00,-1
923.00,-1
922.00,-1
921.00,0
920.00,1
919.00,2
918.00,2
917.00,3
916.00,3
915.00,3
914.00,3
913.00,3
912.00,2
911.00,1
910.00,-0
909.00,-1
908.00,-2
907.00,-2
906.00,-3
905.00,-4
904.00,-4
903.00,-3
902.00,-3
901.00,-2
900.00,-2
899.00,-2
898.00,-2
897.00,-3
896.00,-3
895.00,-3
894.00,-4
893.00,-4
892.00,-4
891.00,-4
890.00,-4
889.00,-5
888.00,-5
887.00,-4
886.00,-3
885.00,-1
884.00,0
883.00,2
882.00,2
881.00,2
880.00,3
879.00,3
878.00,3
877.00,3
876.00,2
875.00,2
874.00,1
873.00,1
872.00,1
871.00,2
870.00,2
869.00,2
868.00,2
867.00,2
866.00,1
865.00,1
864.00,1
863.00,0
862.00,-0
861.00,-1
860.00,-0
859.00,1
858.00,2
857.00,3
856.00,4
855.00,5
854.00,5
853.00,6
852.00,6
851.00,5
850.00,5
849.00,4
848.00,3
847.00,3
846.00,3
845.00,2
844.00,2
843.00,2
842.00,3
841.00,4
840.00,6
839.00,7
838.00,7
837.00,7
836.00,6
835.00,6
834.00,6
833.00,5
832.00,4
831.00,3
830.00,2
829.00,2
828.00,2
827.00,1
826.00,1
825.00,0
824.00,-1
823.00,-2
822.00,-3
821.00,-5
820.00,-6
819.00,-7
818.00,-8
817.00,-9
816.00,-9
815.00,-10
814.00,-10
813.00,-10
812.00,-10
811.00,-11
810.00,-11
809.00,-11
808.00,-11
807.00,-10
806.00,-8
805.00,-5
804.00,-3
803.00,-2
802.00,-2
801.00,-2
800.00,-2
799.00,-2
798.00,-2
797.00,-2
796.00,-2
795.00,-2
794.00,-1
793.00,-0
792.00,1
791.00,2
790.00,3
789.00,5
788.00,7
787.00,9
786.00,11
785.00,12
784.00,11
783.00,10
782.00,10
781.00,9
780.00,7
779.00,5
778.00,2
777.00,-0
776.00,-1
775.00,1
774.00,3
773.00,5
772.00,6
771.00,7
770.00,6
769.00,6
768.00,6
767.00,5
766.00,4
765.00,3
764.00,1
763.00,0
762.00,1
761.00,1
760.00,2
759.00,2
758.00,2
757.00,2
756.00,2
755.00,2
754.00,2
753.00,2
752.00,2
751.00,2
750.00,2
749.00,2
748.00,2
747.00,3
746.00,3
745.00,3
744.00,3
743.00,3
742.00,3
741.00,2
740.00,2
739.00,1
738.00,0
737.00,-0
736.00,-1
735.00,-1
734.00,-1
733.00,-1
732.00,-0
731.00,-1
730.00,-2
729.00,-4
728.00,-5
727.00,-7
726.00,-7
725.00,-8
724.00,-8
723.00,-8
722.00,-8
721.00,-7
720.00,-6
719.00,-5
718.00,-4
717.00,-4
716.00,-4
715.00,-4
714.00,-4
713.00,-4
712.00,-4
711.00,-4
710.00,-4
709.00,-5
708.00,-4
707.00,-3
706.00,-2
705.00,-1
704.00,0
703.00,0
702.00,1
701.00,1
700.00,1
699.00,1
698.00,1
697.00,0
696.00,0
695.00,-0
694.00,-1
693.00,-1
692.00,-1
691.00,-1
690.00,-2
689.00,-2
688.00,-2
687.00,-2
686.00,-3
685.00,-3
684.00,-3
683.00,-4
682.00,-4
681.00,-5
680.00,-4
679.00,-3
678.00,-3
677.00,-2
676.00,-2
675.00,-2
674.00,-2
673.00,-2
672.00,-2
671.00,-1
670.00,-0
669.00,1
668.00,2
667.00,3
666.00,3
665.00,3
664.00,3
663.00,3
662.00,4
661.00,4
660.00,4
659.00,4
658.00,5
657.00,5
656.00,6
655.00,7
654.00,8
653.00,8
652.00,8
651.00,8
650.00,8
649.00,7
648.00,7
647.00,6
646.00,6
645.00,5
644.00,5
643.00,4
642.00,2
641.00,1
640.00,-0
639.00,-2
638.00,-3
637.00,-3
636.00,-4
635.00,-5
634.00,-5
633.00,-6
632.00,-6
631.00,-6
630.00,-6
629.00,-6
628.00,-6
627.00,-5
626.00,-5
625.00,-4
624.00,-3
623.00,-1
622.00,1
621.00,2
620.00,4
619.00,6
618.00,7
617.00,9
616.00,10
615.00,10
614.00,10
613.00,10
612.00,10
611.00,10
610.00,10
609.00,11
608.00,12
607.00,12
606.00,12
605.00,11
604.00,9
603.00,8
602.00,7
601.00,8
600.00,8
599.00,9
598.00,10
597.00,10
596.00,10
595.00,10
594.00,10
593.00,9
592.00,9
591.00,9
590.00,8
589.00,8
588.00,8
587.00,7
586.00,7
585.00,6
584.00,6
583.00,5
582.00,5
581.00,5
580.00,5
579.00,5
578.00,5
577.00,5
576.00,6
575.00,6
574.00,7
573.00,7
572.00,6
571.00,6
570.00,6
569.00,6
568.00,6
567.00,6
566.00,6
565.00,6
564.00,6
563.00,6
562.00,6
561.00,5
560.00,5
559.00,5
558.00,5
557.00,5
556.00,5
555.00,5
554.00,5
553.00,4
552.00,4
551.00,4
550.00,4
549.00,3
548.00,3
547.00,3
546.00,2
545.00,2
544.00,2
543.00,3
542.00,3
541.00,3
540.00,3
539.00,4
538.00,5
537.00,5
536.00,6
535.00,7
534.00,9
533.00,10
532.00,12
531.00,13
530.00,13
529.00,12
528.00,12
527.00,12
526.00,12
525.00,12
524.00,13
523.00,14
522.00,15
521.00,14
520.00,13
519.00,11
518.00,10
517.00,8
516.00,9
515.00,10
514.00,10
513.00,11
512.00,12
511.00,10
510.00,9
509.00,7
508.00,5
507.00,4
506.00,5
505.00,7
504.00,9
503.00,11
502.00,13
501.00,12
500.00,12
499.00,11
498.00,11
497.00,10
496.00,10
495.00,9
494.00,9
493.00,8
492.00,8
491.00,9
490.00,10
489.00,10
488.00,11
487.00,10
486.00,10
485.00,9
484.00,8
483.00,7
482.00,7
481.00,6
480.00,5
479.00,5
478.00,4
477.00,4
476.00,4
475.00,4
474.00,4
473.00,5
472.00,5
471.00,5
470.00,5
469.00,5
468.00,5
467.00,5
466.00,5
465.00,5
464.00,5
463.00,5
462.00,5
461.00,5
460.00,5
459.00,5
458.00,5
457.00,5
456.00,5
455.00,5
454.00,5
453.00,5
452.00,6
451.00,6
450.00,7
449.00,7
448.00,9
447.00,10
446.00,12
445.00,13
444.00,13
443.00,10
442.00,8
441.00,6
440.00,4
439.00,3
438.00,3
437.00,4
436.00,4
435.00,5
434.00,5
433.00,6
432.00,7
431.00,7
430.00,8
429.00,8
428.00,8
427.00,7
426.00,7
425.00,7
424.00,7
423.00,7
422.00,7
421.00,6
420.00,7
419.00,9
418.00,11
417.00,13
416.00,16
415.00,17
414.00,18
413.00,17
412.00,17
411.00,17
410.00,17
409.00,17
408.00,16
407.00,16
406.00,16
405.00,16
404.00,15
403.00,14
402.00,14
401.00,13
400.00,13
399.00,12
398.00,12
397.00,12
396.00,11
395.00,11
394.00,11
393.00,11
392.00,11
391.00,11
390.00,11
389.00,11
388.00,11
387.00,11
386.00,11
385.00,11
384.00,12
383.00,12
382.00,13
381.00,14
380.00,14
379.00,14
378.00,13
377.00,13
376.00,13
375.00,13
374.00,13
373.00,13
372.00,13
371.00,13
370.00,13
369.00,13
368.00,12
367.00,12
366.00,12
365.00,12
364.00,12
363.00,12
362.00,12
361.00,12
360.00,12
359.00,11
358.00,11
357.00,11
356.00,11
355.00,11
354.00,10
353.00,10
352.00,10
351.00,10
350.00,10
349.00,10
348.00,10
347.00,10
346.00,10
345.00,12
344.00,15
343.00,17
342.00,19
341.00,21
340.00,23
339.00,24
338.00,25
337.00,26
336.00,27
335.00,27
334.00,28
333.00,28
332.00,28
331.00,29
330.00,28
329.00,28
328.00,28
327.00,28
326.00,27
325.00,27
324.00,27
323.00,27
322.00,26
321.00,26
320.00,26
319.00,25
318.00,25
317.00,25
316.00,25
315.00,24
314.00,23
313.00,23
312.00,22
311.00,21
310.00,21
309.00,21
308.00,21
307.00,21
306.00,21
305.00,21
304.00,21
303.00,21
302.00,21
301.00,21
300.00,21
299.00,21
298.00,21
297.00,21
296.00,21
295.00,21
294.00,21
293.00,21
292.00,21
291.00,21
290.00,21
289.00,21
288.00,21
287.00,21
286.00,21
285.00,20
284.00,19
283.00,19
282.00,18
281.00,18
280.00,17
279.00,17
278.00,16
277.00,16
276.00,16
275.00,16
274.00,16
273.00,17
272.00,17
271.00,17
270.00,17
269.00,16
268.00,16
267.00,15
266.00,14
265.00,14
264.00,14
263.00,14
262.00,14
261.00,13
260.00,13
259.00,13
258.00,13
257.00,13
256.00,13
255.00,13
254.00,13
253.00,13
252.00,13
251.00,13
250.00,13
249.00,13
248.00,13
247.00,12
246.00,12
245.00,12
244.00,12
243.00,12
242.00,12
241.00,12
240.00,12
239.00,12
238.00,12
237.00,12
236.00,12
235.00,12
234.00,12
233.00,12
232.00,12
231.00,11
230.00,11
229.00,11
228.00,11
227.00,11
226.00,12
225.00,12
224.00,12
223.00,13
222.00,13
221.00,14
220.00,14
219.00,14
218.00,15
217.00,15
216.00,15
215.00,15
214.00,15
213.00,15
212.00,14
211.00,14
210.00,13
209.00,13
208.00,13
207.00,13
206.00,14
205.00,14
204.00,14
203.00,14
202.00,15
201.00,15
200.00,15
199.00,15
198.00,15
197.00,15
196.00,15
195.00,15
194.00,15
193.00,15
192.00,15
191.00,15
190.00,15
189.00,15
188.00,16
187.00,16
186.00,16
185.00,16
184.00,16
183.00,16
182.00,16
181.00,16
180.00,16
179.00,16
178.00,16
177.00,16
176.00,16
175.00,16
174.00,16
173.00,15
172.00,15
171.00,15
170.00,15
169.00,15
168.00,15
167.00,15
166.00,15
165.00,15
164.00,15
163.00,15
162.00,15
161.00,15
160.00,15
159.00,16
158.00,16
157.00,16
156.00,15
155.00,15
154.00,15
153.00,14
152.00,14
151.00,13
150.00,13
149.00,12
148.00,11
147.00,11
146.00,10
145.00,9
144.00,8
143.00,7
142.00,6
141.00,7
140.00,7
139.00,7
138.00,8
137.00,8
136.00,8
135.00,8
134.00,8
133.00,8
132.00,8
131.00,8
130.00,9
129.00,9
128.00,9
127.00,9
126.00,9
125.00,10
124.00,10
123.00,10
122.00,11
121.00,11
120.00,12
119.00,13
118.00,13
117.00,14
116.00,15
115.00,14
114.00,14
113.00,14
112.00,14
111.00,14
110.00,13
109.00,13
108.00,12
107.00,11
106.00,10
105.00,10
104.00,9
103.00,8
102.00,7
101.00,6
100.00,6
