Created as New Dataset,
Raman Shift / cm-1,INT
3200.00,1462
3199.00,1463
3198.00,1698
3197.00,1691
3196.00,1518
3195.00,1827
3194.00,2174
3193.00,2124
3192.00,1973
3191.00,1736
3190.00,1566
3189.00,1429
3188.00,1264
3187.00,1054
3186.00,744
3185.00,308
3184.00,-200
3183.00,-361
3182.00,-334
3181.00,34
3180.00,364
3179.00,460
3178.00,525
3177.00,560
3176.00,452
3175.00,345
3174.00,443
3173.00,647
3172.00,1012
3171.00,1531
3170.00,2122
3169.00,2157
3168.00,2020
3167.00,1919
3166.00,1879
3165.00,1957
3164.00,1744
3163.00,1298
3162.00,923
3161.00,638
3160.00,755
3159.00,918
3158.00,1023
3157.00,1098
3156.00,1139
3155.00,1100
3154.00,1034
3153.00,1065
3152.00,1074
3151.00,917
3150.00,814
3149.00,821
3148.00,1058
3147.00,1444
3146.00,1375
3145.00,1229
3144.00,1578
3143.00,1773
3142.00,1305
3141.00,940
3140.00,786
3139.00,445
3138.00,12
3137.00,-167
3136.00,-253
3135.00,-301
3134.00,-217
3133.00,200
3132.00,434
3131.00,392
3130.00,474
3129.00,630
3128.00,706
3127.00,731
3126.00,615
3125.00,531
3124.00,616
3123.00,731
3122.00,876
3121.00,866
3120.00,717
3119.00,593
3118.00,491
3117.00,503
3116.00,524
3115.00,458
3114.00,403
3113.00,400
3112.00,429
3111.00,504
3110.00,1124
3109.00,2126
3108.00,1947
3107.00,1326
3106.00,876
3105.00,517
3104.00,350
3103.00,221
3102.00,133
3101.00,53
3100.00,-17
3099.00,-120
3098.00,-250
3097.00,-260
3096.00,-176
3095.00,313
3094.00,862
3093.00,919
3092.00,870
3091.00,790
3090.00,747
3089.00,801
3088.00,936
3087.00,1186
3086.00,1312
3085.00,1327
3084.00,1315
3083.00,1299
3082.00,1483
3081.00,1700
3080.00,1653
3079.00,1535
3078.00,1357
3077.00,1215
3076.00,1208
3075.00,1194
3074.00,1147
3073.00,1096
3072.00,1041
3071.00,992
3070.00,952
3069.00,1008
3068.00,1111
3067.00,1038
3066.00,902
3065.00,864
3064.00,839
3063.00,734
3062.00,635
3061.00,624
3060.00,607
3059.00,531
3058.00,470
3057.00,456
3056.00,581
3055.00,951
3054.00,1208
3053.00,1326
3052.00,1382
3051.00,1383
3050.00,1289
3049.00,1136
3048.00,1008
3047.00,895
3046.00,792
3045.00,697
3044.00,615
3043.00,541
3042.00,489
3041.00,441
3040.00,381
3039.00,303
3038.00,151
3037.00,102
3036.00,382
3035.00,647
3034.00,827
3033.00,983
3032.00,1101
3031.00,1154
3030.00,1108
3029.00,1063
3028.00,1024
3027.00,926
3026.00,771
3025.00,647
3024.00,550
3023.00,773
3022.00,1188
3021.00,1199
3020.00,991
3019.00,904
3018.00,883
3017.00,971
3016.00,1098
3015.00,1176
3014.00,1236
3013.00,1272
3012.00,1295
3011.00,1280
3010.00,1247
3009.00,1145
3008.00,1024
3007.00,873
3006.00,742
3005.00,785
3004.00,839
3003.00,761
3002.00,697
3001.00,823
3000.00,935
2999.00,870
2998.00,817
2997.00,916
2996.00,1006
2995.00,987
2994.00,940
2993.00,832
2992.00,780
2991.00,976
2990.00,1176
2989.00,1299
2988.00,1374
2987.00,1298
2986.00,1243
2985.00,1326
2984.00,1383
2983.00,1300
2982.00,1217
2981.00,1183
2980.00,1144
2979.00,1069
2978.00,998
2977.00,960
2976.00,992
2975.00,1286
2974.00,1549
2973.00,1586
2972.00,1574
2971.00,1465
2970.00,1356
2969.00,1288
2968.00,1221
2967.00,1130
2966.00,1066
2965.00,1142
2964.00,1229
2963.00,1289
2962.00,1376
2961.00,1627
2960.00,1864
2959.00,1898
2958.00,1886
2957.00,1787
2956.00,1669
2955.00,1541
2954.00,1417
2953.00,1350
2952.00,1293
2951.00,1201
2950.00,1113
2949.00,1256
2948.00,1472
2947.00,1547
2946.00,1566
2945.00,1583
2944.00,1597
2943.00,1564
2942.00,1507
2941.00,1563
2940.00,1691
2939.00,1658
2938.00,1513
2937.00,1456
2936.00,1485
2935.00,1410
2934.00,1214
2933.00,1098
2932.00,1092
2931.00,1057
2930.00,966
2929.00,901
2928.00,892
2927.00,966
2926.00,1288
2925.00,1541
2924.00,1489
2923.00,1402
2922.00,1273
2921.00,1150
2920.00,1088
2919.00,1046
2918.00,1082
2917.00,1137
2916.00,1182
2915.00,1222
2914.00,1240
2913.00,1246
2912.00,1253
2911.00,1261
2910.00,1276
2909.00,1295
2908.00,1278
2907.00,1219
2906.00,1232
2905.00,1359
2904.00,1424
2903.00,1344
2902.00,1279
2901.00,1274
2900.00,1253
2899.00,1131
2898.00,1013
2897.00,1006
2896.00,1016
2895.00,994
2894.00,972
2893.00,1161
2892.00,1431
2891.00,1588
2890.00,1677
2889.00,1641
2888.00,1497
2887.00,1395
2886.00,1354
2885.00,1382
2884.00,1555
2883.00,1671
2882.00,1586
2881.00,1481
2880.00,1355
2879.00,1238
2878.00,1192
2877.00,1159
2876.00,1060
2875.00,941
2874.00,1046
2873.00,1285
2872.00,1436
2871.00,1495
2870.00,1496
2869.00,1393
2868.00,1292
2867.00,1193
2866.00,1102
2865.00,1049
2864.00,999
2863.00,941
2862.00,889
2861.00,983
2860.00,1125
2859.00,1193
2858.00,1217
2857.00,1197
2856.00,1133
2855.00,1087
2854.00,1077
2853.00,1061
2852.00,1022
2851.00,984
2850.00,967
2849.00,964
2848.00,1126
2847.00,1333
2846.00,1341
2845.00,1240
2844.00,1200
2843.00,1228
2842.00,1285
2841.00,1398
2840.00,1465
2839.00,1367
2838.00,1270
2837.00,1299
2836.00,1350
2835.00,1362
2834.00,1358
2833.00,1331
2832.00,1286
2831.00,1329
2830.00,1502
2829.00,1626
2828.00,1608
2827.00,1570
2826.00,1463
2825.00,1345
2824.00,1230
2823.00,1119
2822.00,1109
2821.00,1161
2820.00,1199
2819.00,1223
2818.00,1234
2817.00,1215
2816.00,1183
2815.00,1086
2814.00,982
2813.00,917
2812.00,862
2811.00,782
2810.00,687
2809.00,658
2808.00,731
2807.00,762
2806.00,665
2805.00,594
2804.00,773
2803.00,992
2802.00,1097
2801.00,1154
2800.00,1171
2799.00,1150
2798.00,1120
2797.00,1071
2796.00,1027
2795.00,1017
2794.00,1009
2793.00,969
2792.00,920
2791.00,899
2790.00,898
2789.00,888
2788.00,861
2787.00,831
2786.00,792
2785.00,764
2784.00,863
2783.00,994
2782.00,1086
2781.00,1150
2780.00,1152
2779.00,1063
2778.00,988
2777.00,971
2776.00,961
2775.00,962
2774.00,967
2773.00,878
2772.00,731
2771.00,705
2770.00,889
2769.00,1054
2768.00,1113
2767.00,1155
2766.00,1104
2765.00,1025
2764.00,956
2763.00,894
2762.00,891
2761.00,1020
2760.00,1143
2759.00,1206
2758.00,1258
2757.00,1299
2756.00,1335
2755.00,1308
2754.00,1204
2753.00,1123
2752.00,1104
2751.00,1089
2750.00,1080
2749.00,1071
2748.00,1004
2747.00,897
2746.00,845
2745.00,899
2744.00,944
2743.00,932
2742.00,913
2741.00,922
2740.00,943
2739.00,952
2738.00,944
2737.00,953
2736.00,1025
2735.00,1092
2734.00,1017
2733.00,899
2732.00,939
2731.00,1122
2730.00,1267
2729.00,1310
2728.00,1341
2727.00,1317
2726.00,1279
2725.00,1222
2724.00,1150
2723.00,1095
2722.00,1086
2721.00,1081
2720.00,1089
2719.00,1099
2718.00,1062
2717.00,994
2716.00,958
2715.00,987
2714.00,1000
2713.00,910
2712.00,803
2711.00,718
2710.00,649
2709.00,652
2708.00,802
2707.00,929
2706.00,877
2705.00,795
2704.00,812
2703.00,894
2702.00,934
2701.00,882
2700.00,819
2699.00,696
2698.00,566
2697.00,639
2696.00,863
2695.00,998
2694.00,913
2693.00,825
2692.00,784
2691.00,755
2690.00,789
2689.00,879
2688.00,994
2687.00,1202
2686.00,1406
2685.00,1384
2684.00,1286
2683.00,1203
2682.00,1137
2681.00,1071
2680.00,1010
2679.00,950
2678.00,887
2677.00,822
2676.00,715
2675.00,534
2674.00,370
2673.00,331
2672.00,318
2671.00,279
2670.00,222
2669.00,221
2668.00,380
2667.00,540
2666.00,577
2665.00,569
2664.00,524
2663.00,429
2662.00,356
2661.00,394
2660.00,452
2659.00,853
2658.00,1466
2657.00,1708
2656.00,962
2655.00,280
2654.00,323
2653.00,576
2652.00,685
2651.00,629
2650.00,584
2649.00,596
2648.00,617
2647.00,627
2646.00,631
2645.00,637
2644.00,649
2643.00,660
2642.00,649
2641.00,631
2640.00,583
2639.00,493
2638.00,406
2637.00,336
2636.00,269
2635.00,336
2634.00,509
2633.00,668
2632.00,781
2631.00,881
2630.00,841
2629.00,737
2628.00,657
2627.00,627
2626.00,596
2625.00,514
2624.00,419
2623.00,350
2622.00,317
2621.00,301
2620.00,392
2619.00,502
2618.00,557
2617.00,562
2616.00,573
2615.00,611
2614.00,652
2613.00,639
2612.00,595
2611.00,543
2610.00,465
2609.00,385
2608.00,277
2607.00,159
2606.00,74
2605.00,61
2604.00,51
2603.00,41
2602.00,32
2601.00,67
2600.00,173
2599.00,264
2598.00,233
2597.00,173
2596.00,133
2595.00,119
2594.00,91
2593.00,-24
2592.00,-153
2591.00,-139
2590.00,31
2589.00,193
2588.00,317
2587.00,431
2586.00,464
2585.00,421
2584.00,376
2583.00,322
2582.00,269
2581.00,195
2580.00,107
2579.00,40
2578.00,59
2577.00,88
2576.00,98
2575.00,94
2574.00,91
2573.00,97
2572.00,104
2571.00,126
2570.00,162
2569.00,210
2568.00,304
2567.00,404
2566.00,407
2565.00,346
2564.00,286
2563.00,237
2562.00,189
2561.00,142
2560.00,95
2559.00,64
2558.00,96
2557.00,138
2556.00,183
2555.00,228
2554.00,272
2553.00,295
2552.00,315
2551.00,305
2550.00,269
2549.00,250
2548.00,329
2547.00,422
2546.00,451
2545.00,406
2544.00,365
2543.00,339
2542.00,318
2541.00,289
2540.00,252
2539.00,220
2538.00,240
2537.00,273
2536.00,302
2535.00,325
2534.00,347
2533.00,344
2532.00,334
2531.00,308
2530.00,252
2529.00,196
2528.00,161
2527.00,137
2526.00,145
2525.00,245
2524.00,350
2523.00,375
2522.00,350
2521.00,316
2520.00,242
2519.00,164
2518.00,80
2517.00,-8
2516.00,-68
2515.00,91
2514.00,301
2513.00,419
2512.00,403
2511.00,381
2510.00,280
2509.00,155
2508.00,48
2507.00,-13
2506.00,-72
2505.00,-160
2504.00,-261
2503.00,-349
2502.00,-392
2501.00,-430
2500.00,-387
2499.00,-271
2498.00,-157
2497.00,-42
2496.00,72
2495.00,178
2494.00,270
2493.00,356
2492.00,347
2491.00,298
2490.00,259
2489.00,251
2488.00,246
2487.00,182
2486.00,80
2485.00,-1
2484.00,29
2483.00,76
2482.00,54
2481.00,-65
2480.00,-179
2479.00,-220
2478.00,-238
2477.00,-247
2476.00,-228
2475.00,-208
2474.00,-251
2473.00,-335
2472.00,-415
2471.00,-465
2470.00,-507
2469.00,-494
2468.00,-380
2467.00,-270
2466.00,-299
2465.00,-390
2464.00,-447
2463.00,-366
2462.00,-272
2461.00,-185
2460.00,-106
2459.00,-31
2458.00,2
2457.00,23
2456.00,28
2455.00,-5
2454.00,-39
2453.00,-57
2452.00,-62
2451.00,-65
2450.00,-44
2449.00,-20
2448.00,-40
2447.00,-137
2446.00,-234
2445.00,-283
2444.00,-305
2443.00,-305
2442.00,-200
2441.00,-81
2440.00,-30
2439.00,-71
2438.00,-115
2437.00,-199
2436.00,-302
2435.00,-376
2434.00,-338
2433.00,-291
2432.00,-291
2431.00,-355
2430.00,-420
2429.00,-490
2428.00,-561
2427.00,-622
2426.00,-648
2425.00,-669
2424.00,-571
2423.00,-339
2422.00,-114
2421.00,-16
2420.00,29
2419.00,67
2418.00,78
2417.00,86
2416.00,108
2415.00,147
2414.00,181
2413.00,166
2412.00,131
2411.00,89
2410.00,24
2409.00,-45
2408.00,-84
2407.00,-74
2406.00,-66
2405.00,-80
2404.00,-105
2403.00,-130
2402.00,-152
2401.00,-173
2400.00,-192
2399.00,-209
2398.00,-225
2397.00,-226
2396.00,-217
2395.00,-206
2394.00,-171
2393.00,-132
2392.00,-105
2391.00,-111
2390.00,-120
2389.00,-100
2388.00,-49
2387.00,-1
2386.00,29
2385.00,54
2384.00,90
2383.00,186
2382.00,291
2381.00,309
2380.00,197
2379.00,81
2378.00,-19
2377.00,-112
2376.00,-197
2375.00,-206
2374.00,-198
2373.00,-194
2372.00,-199
2371.00,-204
2370.00,-220
2369.00,-247
2368.00,-270
2367.00,-231
2366.00,-166
2365.00,-117
2364.00,-163
2363.00,-225
2362.00,-272
2361.00,-288
2360.00,-304
2359.00,-342
2358.00,-398
2357.00,-444
2356.00,-329
2355.00,-160
2354.00,-27
2353.00,-65
2352.00,-125
2351.00,-157
2350.00,-132
2349.00,-105
2348.00,-71
2347.00,-30
2346.00,10
2345.00,25
2344.00,30
2343.00,42
2342.00,86
2341.00,135
2340.00,148
2339.00,75
2338.00,-1
2337.00,-86
2336.00,-178
2335.00,-264
2334.00,-217
2333.00,-113
2332.00,-23
2331.00,-31
2330.00,-57
2329.00,-94
2328.00,-165
2327.00,-238
2326.00,-266
2325.00,-234
2324.00,-201
2323.00,-213
2322.00,-252
2321.00,-291
2320.00,-334
2319.00,-378
2318.00,-417
2317.00,-435
2316.00,-450
2315.00,-422
2314.00,-303
2313.00,-186
2312.00,-100
2311.00,-54
2310.00,-12
2309.00,-55
2308.00,-144
2307.00,-231
2306.00,-294
2305.00,-351
2304.00,-379
2303.00,-278
2302.00,-166
2301.00,-87
2300.00,-91
2299.00,-100
2298.00,-110
2297.00,-122
2296.00,-136
2295.00,-166
2294.00,-206
2293.00,-239
2292.00,-169
2291.00,-68
2290.00,12
2289.00,-14
2288.00,-57
2287.00,-95
2286.00,-121
2285.00,-147
2284.00,-134
2283.00,-59
2282.00,16
2281.00,-7
2280.00,-106
2279.00,-201
2278.00,-150
2277.00,-38
2276.00,66
2275.00,87
2274.00,85
2273.00,79
2272.00,59
2271.00,37
2270.00,13
2269.00,-19
2268.00,-50
2267.00,-75
2266.00,-89
2265.00,-103
2264.00,-114
2263.00,-121
2262.00,-129
2261.00,-144
2260.00,-163
2259.00,-181
2258.00,-189
2257.00,-194
2256.00,-190
2255.00,-111
2254.00,-18
2253.00,67
2252.00,102
2251.00,129
2250.00,107
2249.00,-43
2248.00,-198
2247.00,-295
2246.00,-286
2245.00,-277
2244.00,-251
2243.00,-208
2242.00,-166
2241.00,-125
2240.00,-85
2239.00,-48
2238.00,-11
2237.00,24
2236.00,58
2235.00,61
2234.00,56
2233.00,52
2232.00,52
2231.00,52
2230.00,42
2229.00,-10
2228.00,-65
2227.00,-67
2226.00,91
2225.00,259
2224.00,361
2223.00,318
2222.00,270
2221.00,211
2220.00,136
2219.00,62
2218.00,46
2217.00,84
2216.00,122
2215.00,230
2214.00,384
2213.00,535
2212.00,565
2211.00,537
2210.00,509
2209.00,503
2208.00,504
2207.00,500
2206.00,447
2205.00,381
2204.00,321
2203.00,317
2202.00,325
2201.00,328
2200.00,308
2199.00,284
2198.00,283
2197.00,379
2196.00,485
2195.00,555
2194.00,513
2193.00,462
2192.00,428
2191.00,437
2190.00,448
2189.00,458
2188.00,468
2187.00,479
2186.00,506
2185.00,558
2184.00,610
2183.00,663
2182.00,718
2181.00,773
2180.00,774
2179.00,727
2178.00,681
2177.00,764
2176.00,937
2175.00,1103
2174.00,1149
2173.00,1121
2172.00,1092
2171.00,1052
2170.00,1006
2169.00,959
2168.00,909
2167.00,858
2166.00,813
2165.00,891
2164.00,1013
2163.00,1137
2162.00,1208
2161.00,1259
2160.00,1302
2159.00,1234
2158.00,1133
2157.00,1043
2156.00,1041
2155.00,1065
2154.00,1084
2153.00,1067
2152.00,1042
2151.00,1018
2150.00,1018
2149.00,1023
2148.00,1035
2147.00,1096
2146.00,1167
2145.00,1228
2144.00,1241
2143.00,1246
2142.00,1238
2141.00,1148
2140.00,1045
2139.00,966
2138.00,1052
2137.00,1169
2136.00,1260
2135.00,1209
2134.00,1135
2133.00,1086
2132.00,1198
2131.00,1332
2130.00,1453
2129.00,1496
2128.00,1523
2127.00,1540
2126.00,1497
2125.00,1445
2124.00,1400
2123.00,1403
2122.00,1412
2121.00,1417
2120.00,1401
2119.00,1379
2118.00,1358
2117.00,1343
2116.00,1329
2115.00,1337
2114.00,1514
2113.00,1729
2112.00,1927
2111.00,2043
2110.00,2146
2109.00,2233
2108.00,2203
2107.00,2149
2106.00,2095
2105.00,2040
2104.00,1986
2103.00,1937
2102.00,1950
2101.00,1980
2100.00,2000
2099.00,1893
2098.00,1748
2097.00,1618
2096.00,1740
2095.00,1945
2094.00,2143
2093.00,2117
2092.00,2006
2091.00,1896
2090.00,1827
2089.00,1776
2088.00,1726
2087.00,1701
2086.00,1690
2085.00,1679
2084.00,1720
2083.00,1793
2082.00,1865
2081.00,1976
2080.00,2110
2079.00,2242
2078.00,2392
2077.00,2557
2076.00,2726
2075.00,2823
2074.00,2839
2073.00,2855
2072.00,2807
2071.00,2659
2070.00,2513
2069.00,2444
2068.00,2514
2067.00,2587
2066.00,2665
2065.00,2756
2064.00,2847
2063.00,2859
2062.00,2620
2061.00,2370
2060.00,2178
2059.00,2203
2058.00,2250
2057.00,2301
2056.00,2375
2055.00,2452
2054.00,2522
2053.00,2550
2052.00,2568
2051.00,2595
2050.00,2729
2049.00,2892
2048.00,3045
2047.00,3030
2046.00,2948
2045.00,2866
2044.00,2778
2043.00,2687
2042.00,2597
2041.00,2589
2040.00,2642
2039.00,2695
2038.00,2770
2037.00,2869
2036.00,2963
2035.00,3046
2034.00,3103
2033.00,3160
2032.00,3169
2031.00,3067
2030.00,2960
2029.00,2897
2028.00,2970
2027.00,3051
2026.00,3121
2025.00,3118
2024.00,3104
2023.00,3087
2022.00,3051
2021.00,3010
2020.00,2967
2019.00,2878
2018.00,2774
2017.00,2674
2016.00,2703
2015.00,2803
2014.00,2903
2013.00,3015
2012.00,3131
2011.00,3251
2010.00,3290
2009.00,3212
2008.00,3134
2007.00,3106
2006.00,3193
2005.00,3283
2004.00,3338
2003.00,3277
2002.00,3206
2001.00,3166
2000.00,3321
1999.00,3510
1998.00,3678
1997.00,3672
1996.00,3614
1995.00,3558
1994.00,3602
1993.00,3695
1992.00,3783
1991.00,3765
1990.00,3654
1989.00,3546
1988.00,3476
1987.00,3469
1986.00,3462
1985.00,3445
1984.00,3403
1983.00,3359
1982.00,3325
1981.00,3340
1980.00,3361
1979.00,3385
1978.00,3433
1977.00,3489
1976.00,3543
1975.00,3540
1974.00,3515
1973.00,3490
1972.00,3484
1971.00,3490
1970.00,3497
1969.00,3525
1968.00,3586
1967.00,3644
1966.00,3697
1965.00,3733
1964.00,3769
1963.00,3786
1962.00,3693
1961.00,3584
1960.00,3480
1959.00,3467
1958.00,3483
1957.00,3497
1956.00,3439
1955.00,3335
1954.00,3230
1953.00,3324
1952.00,3656
1951.00,3988
1950.00,4219
1949.00,4174
1948.00,4114
1947.00,4067
1946.00,4081
1945.00,4103
1944.00,4131
1943.00,4199
1942.00,4277
1941.00,4355
1940.00,4400
1939.00,4426
1938.00,4451
1937.00,4490
1936.00,4548
1935.00,4602
1934.00,4664
1933.00,4744
1932.00,4825
1931.00,4899
1930.00,4933
1929.00,4959
1928.00,4981
1927.00,4921
1926.00,4830
1925.00,4740
1924.00,4685
1923.00,4664
1922.00,4642
1921.00,4653
1920.00,4733
1919.00,4817
1918.00,4876
1917.00,4809
1916.00,4725
1915.00,4649
1914.00,4666
1913.00,4712
1912.00,4758
1911.00,4855
1910.00,4990
1909.00,5124
1908.00,5185
1907.00,5108
1906.00,5027
1905.00,4952
1904.00,4900
1903.00,4850
1902.00,4804
1901.00,4800
1900.00,4811
1899.00,4822
1898.00,4838
1897.00,4858
1896.00,4878
1895.00,4858
1894.00,4755
1893.00,4649
1892.00,4579
1891.00,4701
1890.00,4852
1889.00,4998
1888.00,5042
1887.00,5046
1886.00,5049
1885.00,5109
1884.00,5227
1883.00,5345
1882.00,5439
1881.00,5469
1880.00,5496
1879.00,5514
1878.00,5466
1877.00,5404
1876.00,5344
1875.00,5311
1874.00,5292
1873.00,5272
1872.00,5313
1871.00,5437
1870.00,5562
1869.00,5679
1868.00,5780
1867.00,5883
1866.00,5978
1865.00,5944
1864.00,5867
1863.00,5791
1862.00,5726
1861.00,5673
1860.00,5620
1859.00,5608
1858.00,5696
1857.00,5788
1856.00,5873
1855.00,5867
1854.00,5839
1853.00,5810
1852.00,5762
1851.00,5703
1850.00,5644
1849.00,5613
1848.00,5645
1847.00,5678
1846.00,5710
1845.00,5734
1844.00,5757
1843.00,5777
1842.00,5764
1841.00,5731
1840.00,5699
1839.00,5716
1838.00,5816
1837.00,5914
1836.00,5988
1835.00,5933
1834.00,5857
1833.00,5787
1832.00,5881
1831.00,6056
1830.00,6236
1829.00,6354
1828.00,6366
1827.00,6374
1826.00,6376
1825.00,6337
1824.00,6292
1823.00,6247
1822.00,6213
1821.00,6184
1820.00,6156
1819.00,6147
1818.00,6173
1817.00,6199
1816.00,6220
1815.00,6198
1814.00,6169
1813.00,6141
1812.00,6197
1811.00,6306
1810.00,6412
1809.00,6492
1808.00,6520
1807.00,6545
1806.00,6572
1805.00,6624
1804.00,6683
1803.00,6741
1802.00,6718
1801.00,6637
1800.00,6554
1799.00,6492
1798.00,6486
1797.00,6483
1796.00,6482
1795.00,6521
1794.00,6575
1793.00,6628
1792.00,6655
1791.00,6655
1790.00,6655
1789.00,6664
1788.00,6711
1787.00,6765
1786.00,6816
1785.00,6811
1784.00,6780
1783.00,6749
1782.00,6731
1781.00,6738
1780.00,6745
1779.00,6761
1778.00,6858
1777.00,6967
1776.00,7076
1775.00,7115
1774.00,7090
1773.00,7066
1772.00,7047
1771.00,7045
1770.00,7045
1769.00,7045
1768.00,7059
1767.00,7079
1766.00,7098
1765.00,7143
1764.00,7227
1763.00,7313
1762.00,7392
1761.00,7422
1760.00,7442
1759.00,7461
1758.00,7509
1757.00,7585
1756.00,7660
1755.00,7730
1754.00,7766
1753.00,7799
1752.00,7831
1751.00,7836
1750.00,7827
1749.00,7817
1748.00,7856
1747.00,8012
1746.00,8178
1745.00,8328
1744.00,8344
1743.00,8324
1742.00,8303
1741.00,8298
1740.00,8313
1739.00,8329
1738.00,8347
1737.00,8374
1736.00,8403
1735.00,8431
1734.00,8463
1733.00,8498
1732.00,8532
1731.00,8581
1730.00,8691
1729.00,8808
1728.00,8922
1727.00,8933
1726.00,8885
1725.00,8838
1724.00,8804
1723.00,8811
1722.00,8820
1721.00,8834
1720.00,8963
1719.00,9137
1718.00,9310
1717.00,9424
1716.00,9418
1715.00,9408
1714.00,9399
1713.00,9397
1712.00,9397
1711.00,9397
1710.00,9447
1709.00,9578
1708.00,9710
1707.00,9825
1706.00,9805
1705.00,9755
1704.00,9704
1703.00,9686
1702.00,9710
1701.00,9734
1700.00,9749
1699.00,9703
1698.00,9646
1697.00,9588
1696.00,9573
1695.00,9598
1694.00,9626
1693.00,9666
1692.00,9791
1691.00,9930
1690.00,10063
1689.00,10092
1688.00,10016
1687.00,9941
1686.00,9873
1685.00,9848
1684.00,9829
1683.00,9811
1682.00,9822
1681.00,9860
1680.00,9898
1679.00,9929
1678.00,9934
1677.00,9935
1676.00,9936
1675.00,10008
1674.00,10144
1673.00,10275
1672.00,10401
1671.00,10477
1670.00,10543
1669.00,10612
1668.00,10674
1667.00,10728
1666.00,10785
1665.00,10841
1664.00,10894
1663.00,10949
1662.00,11003
1661.00,11060
1660.00,11121
1659.00,11185
1658.00,11261
1657.00,11421
1656.00,11603
1655.00,11783
1654.00,11881
1653.00,11887
1652.00,11893
1651.00,11889
1650.00,11796
1649.00,11685
1648.00,11572
1647.00,11535
1646.00,11613
1645.00,11692
1644.00,11763
1643.00,11717
1642.00,11636
1641.00,11556
1640.00,11527
1639.00,11608
1638.00,11690
1637.00,11769
1636.00,11821
1635.00,11863
1634.00,11905
1633.00,11949
1632.00,12007
1631.00,12067
1630.00,12125
1629.00,12069
1628.00,11955
1627.00,11841
1626.00,11737
1625.00,11684
1624.00,11638
1623.00,11592
1622.00,11567
1621.00,11560
1620.00,11554
1619.00,11546
1618.00,11522
1617.00,11495
1616.00,11469
1615.00,11481
1614.00,11555
1613.00,11630
1612.00,11695
1611.00,11677
1610.00,11634
1609.00,11591
1608.00,11546
1607.00,11493
1606.00,11440
1605.00,11387
1604.00,11295
1603.00,11182
1602.00,11069
1601.00,10962
1600.00,10876
1599.00,10792
1598.00,10708
1597.00,10624
1596.00,10540
1595.00,10456
1594.00,10371
1593.00,10267
1592.00,10160
1591.00,10052
1590.00,9958
1589.00,9890
1588.00,9823
1587.00,9756
1586.00,9650
1585.00,9529
1584.00,9407
1583.00,9292
1582.00,9197
1581.00,9105
1580.00,9013
1579.00,8929
1578.00,8852
1577.00,8777
1576.00,8704
1575.00,8666
1574.00,8638
1573.00,8609
1572.00,8592
1571.00,8599
1570.00,8606
1569.00,8613
1568.00,8590
1567.00,8552
1566.00,8513
1565.00,8463
1564.00,8354
1563.00,8237
1562.00,8121
1561.00,8036
1560.00,7991
1559.00,7947
1558.00,7903
1557.00,7852
1556.00,7798
1555.00,7745
1554.00,7677
1553.00,7560
1552.00,7439
1551.00,7319
1550.00,7215
1549.00,7126
1548.00,7038
1547.00,6954
1546.00,6913
1545.00,6882
1544.00,6852
1543.00,6819
1542.00,6782
1541.00,6744
1540.00,6706
1539.00,6669
1538.00,6631
1537.00,6593
1536.00,6554
1535.00,6497
1534.00,6435
1533.00,6374
1532.00,6318
1531.00,6273
1530.00,6230
1529.00,6187
1528.00,6138
1527.00,6085
1526.00,6033
1525.00,5980
1524.00,5917
1523.00,5852
1522.00,5787
1521.00,5725
1520.00,5668
1519.00,5613
1518.00,5556
1517.00,5502
1516.00,5451
1515.00,5400
1514.00,5348
1513.00,5278
1512.00,5207
1511.00,5136
1510.00,5061
1509.00,4981
1508.00,4900
1507.00,4820
1506.00,4762
1505.00,4724
1504.00,4687
1503.00,4650
1502.00,4624
1501.00,4602
1500.00,4580
1499.00,4565
1498.00,4572
1497.00,4583
1496.00,4594
1495.00,4563
1494.00,4479
1493.00,4398
1492.00,4317
1491.00,4258
1490.00,4209
1489.00,4160
1488.00,4121
1487.00,4127
1486.00,4141
1485.00,4155
1484.00,4150
1483.00,4107
1482.00,4062
1481.00,4018
1480.00,3972
1479.00,3928
1478.00,3883
1477.00,3838
1476.00,3806
1475.00,3778
1474.00,3749
1473.00,3725
1472.00,3715
1471.00,3706
1470.00,3697
1469.00,3696
1468.00,3706
1467.00,3716
1466.00,3725
1465.00,3700
1464.00,3656
1463.00,3612
1462.00,3574
1461.00,3582
1460.00,3600
1459.00,3617
1458.00,3629
1457.00,3626
1456.00,3623
1455.00,3619
1454.00,3600
1453.00,3562
1452.00,3524
1451.00,3484
1450.00,3418
1449.00,3342
1448.00,3266
1447.00,3195
1446.00,3171
1445.00,3156
1444.00,3141
1443.00,3127
1442.00,3114
1441.00,3102
1440.00,3090
1439.00,3071
1438.00,3044
1437.00,3017
1436.00,2990
1435.00,2959
1434.00,2926
1433.00,2893
1432.00,2858
1431.00,2789
1430.00,2710
1429.00,2634
1428.00,2568
1427.00,2542
1426.00,2520
1425.00,2498
1424.00,2476
1423.00,2456
1422.00,2436
1421.00,2415
1420.00,2393
1419.00,2368
1418.00,2343
1417.00,2318
1416.00,2282
1415.00,2243
1414.00,2204
1413.00,2163
1412.00,2113
1411.00,2061
1410.00,2009
1409.00,1968
1408.00,1962
1407.00,1958
1406.00,1954
1405.00,1949
1404.00,1941
1403.00,1933
1402.00,1926
1401.00,1906
1400.00,1876
1399.00,1848
1398.00,1819
1397.00,1785
1396.00,1751
1395.00,1716
1394.00,1683
1393.00,1661
1392.00,1641
1391.00,1622
1390.00,1603
1389.00,1590
1388.00,1578
1387.00,1565
1386.00,1567
1385.00,1595
1384.00,1624
1383.00,1654
1382.00,1645
1381.00,1598
1380.00,1551
1379.00,1506
1378.00,1474
1377.00,1450
1376.00,1426
1375.00,1402
1374.00,1384
1373.00,1367
1372.00,1350
1371.00,1333
1370.00,1313
1369.00,1293
1368.00,1272
1367.00,1251
1366.00,1225
1365.00,1199
1364.00,1174
1363.00,1151
1362.00,1135
1361.00,1118
1360.00,1101
1359.00,1081
1358.00,1056
1357.00,1032
1356.00,1007
1355.00,981
1354.00,955
1353.00,929
1352.00,903
1351.00,894
1350.00,892
1349.00,889
1348.00,887
1347.00,883
1346.00,879
1345.00,875
1344.00,869
1343.00,850
1342.00,830
1341.00,810
1340.00,785
1339.00,748
1338.00,711
1337.00,673
1336.00,634
1335.00,593
1334.00,551
1333.00,511
1332.00,480
1331.00,465
1330.00,450
1329.00,435
1328.00,430
1327.00,433
1326.00,437
1325.00,441
1324.00,423
1323.00,392
1322.00,362
1321.00,331
1320.00,297
1319.00,261
1318.00,225
1317.00,189
1316.00,163
1315.00,138
1314.00,113
1313.00,91
1312.00,77
1311.00,64
1310.00,52
1309.00,42
1308.00,41
1307.00,42
1306.00,42
1305.00,31
1304.00,-23
1303.00,-79
1302.00,-135
1301.00,-179
1300.00,-185
1299.00,-189
1298.00,-192
1297.00,-207
1296.00,-245
1295.00,-283
1294.00,-322
1293.00,-352
1292.00,-367
1291.00,-383
1290.00,-398
1289.00,-404
1288.00,-399
1287.00,-394
1286.00,-388
1285.00,-396
1284.00,-416
1283.00,-436
1282.00,-456
1281.00,-465
1280.00,-466
1279.00,-466
1278.00,-467
1277.00,-459
1276.00,-448
1275.00,-436
1274.00,-426
1273.00,-460
1272.00,-515
1271.00,-569
1270.00,-621
1269.00,-638
1268.00,-640
1267.00,-643
1266.00,-644
1265.00,-640
1264.00,-633
1263.00,-626
1262.00,-621
1261.00,-628
1260.00,-638
1259.00,-648
1258.00,-658
1257.00,-661
1256.00,-662
1255.00,-664
1254.00,-663
1253.00,-643
1252.00,-617
1251.00,-591
1250.00,-565
1249.00,-543
1248.00,-520
1247.00,-497
1246.00,-478
1245.00,-483
1244.00,-492
1243.00,-501
1242.00,-506
1241.00,-492
1240.00,-475
1239.00,-458
1238.00,-441
1237.00,-427
1236.00,-412
1235.00,-398
1234.00,-386
1233.00,-385
1232.00,-385
1231.00,-386
1230.00,-387
1229.00,-396
1228.00,-405
1227.00,-415
1226.00,-416
1225.00,-374
1224.00,-328
1223.00,-281
1222.00,-241
1221.00,-235
1220.00,-233
1219.00,-232
1218.00,-230
1217.00,-229
1216.00,-228
1215.00,-226
1214.00,-226
1213.00,-233
1212.00,-241
1211.00,-249
1210.00,-253
1209.00,-232
1208.00,-208
1207.00,-184
1206.00,-158
1205.00,-117
1204.00,-74
1203.00,-30
1202.00,7
1201.00,6
1200.00,-3
1199.00,-11
1198.00,-18
1197.00,-23
1196.00,-26
1195.00,-30
1194.00,-32
1193.00,-24
1192.00,-15
1191.00,-5
1190.00,5
1189.00,16
1188.00,27
1187.00,38
1186.00,45
1185.00,12
1184.00,-34
1183.00,-79
1182.00,-123
1181.00,-142
1180.00,-154
1179.00,-165
1178.00,-177
1177.00,-195
1176.00,-216
1175.00,-237
1174.00,-258
1173.00,-274
1172.00,-287
1171.00,-300
1170.00,-314
1169.00,-337
1168.00,-367
1167.00,-397
1166.00,-427
1165.00,-434
1164.00,-425
1163.00,-416
1162.00,-407
1161.00,-418
1160.00,-446
1159.00,-474
1158.00,-502
1157.00,-522
1156.00,-528
1155.00,-534
1154.00,-540
1153.00,-536
1152.00,-514
1151.00,-491
1150.00,-470
1149.00,-456
1148.00,-462
1147.00,-469
1146.00,-475
1145.00,-486
1144.00,-507
1143.00,-529
1142.00,-550
1141.00,-568
1140.00,-568
1139.00,-566
1138.00,-564
1137.00,-564
1136.00,-572
1135.00,-581
1134.00,-590
1133.00,-597
1132.00,-585
1131.00,-568
1130.00,-551
1129.00,-534
1128.00,-525
1127.00,-519
1126.00,-512
1125.00,-505
1124.00,-488
1123.00,-468
1122.00,-448
1121.00,-427
1120.00,-420
1119.00,-423
1118.00,-426
1117.00,-429
1116.00,-442
1115.00,-466
1114.00,-491
1113.00,-515
1112.00,-516
1111.00,-478
1110.00,-439
1109.00,-399
1108.00,-357
1107.00,-300
1106.00,-241
1105.00,-182
1104.00,-138
1103.00,-154
1102.00,-176
1101.00,-199
1100.00,-221
1099.00,-238
1098.00,-254
1097.00,-270
1096.00,-286
1095.00,-293
1094.00,-297
1093.00,-300
1092.00,-304
1091.00,-301
1090.00,-295
1089.00,-289
1088.00,-283
1087.00,-276
1086.00,-267
1085.00,-257
1084.00,-248
1083.00,-234
1082.00,-211
1081.00,-188
1080.00,-165
1079.00,-143
1078.00,-124
1077.00,-106
1076.00,-87
1075.00,-67
1074.00,-39
1073.00,-11
1072.00,17
1071.00,44
1070.00,53
1069.00,59
1068.00,65
1067.00,70
1066.00,89
1065.00,115
1064.00,139
1063.00,164
1062.00,172
1061.00,165
1060.00,158
1059.00,151
1058.00,140
1057.00,123
1056.00,105
1055.00,88
1054.00,77
1053.00,86
1052.00,97
1051.00,108
1050.00,121
1049.00,150
1048.00,183
1047.00,214
1046.00,246
1045.00,280
1044.00,312
1043.00,345
1042.00,377
1041.00,395
1040.00,401
1039.00,408
1038.00,414
1037.00,410
1036.00,388
1035.00,365
1034.00,342
1033.00,333
1032.00,365
1031.00,399
1030.00,435
1029.00,468
1028.00,487
1027.00,502
1026.00,518
1025.00,535
1024.00,556
1023.00,579
1022.00,603
1021.00,626
1020.00,636
1019.00,631
1018.00,627
1017.00,623
1016.00,618
1015.00,610
1014.00,601
1013.00,593
1012.00,583
1011.00,562
1010.00,540
1009.00,518
1008.00,498
1007.00,504
1006.00,519
1005.00,535
1004.00,550
1003.00,563
1002.00,574
1001.00,585
1000.00,596
999.00,603
998.00,602
997.00,602
996.00,601
995.00,597
994.00,577
993.00,556
992.00,534
991.00,517
990.00,555
989.00,610
988.00,666
987.00,722
986.00,751
985.00,758
984.00,766
983.00,773
982.00,774
981.00,761
980.00,748
979.00,734
978.00,724
977.00,731
976.00,741
975.00,750
974.00,760
973.00,776
972.00,794
971.00,812
970.00,831
969.00,841
968.00,844
967.00,846
966.00,848
965.00,848
964.00,837
963.00,826
962.00,815
961.00,805
960.00,809
959.00,817
958.00,824
957.00,832
956.00,842
955.00,854
954.00,867
953.00,879
952.00,891
951.00,901
950.00,911
949.00,921
948.00,932
947.00,949
946.00,966
945.00,983
944.00,1000
943.00,1004
942.00,1003
941.00,1001
940.00,999
939.00,1005
938.00,1022
937.00,1039
936.00,1056
935.00,1065
934.00,1036
933.00,1002
932.00,969
931.00,938
930.00,928
929.00,927
928.00,927
927.00,926
926.00,944
925.00,984
924.00,1025
923.00,1066
922.00,1102
921.00,1124
920.00,1145
919.00,1165
918.00,1186
917.00,1218
916.00,1254
915.00,1290
914.00,1326
913.00,1347
912.00,1345
911.00,1343
910.00,1341
909.00,1338
908.00,1329
907.00,1320
906.00,1312
905.00,1303
904.00,1306
903.00,1314
902.00,1322
901.00,1329
900.00,1346
899.00,1377
898.00,1407
897.00,1437
896.00,1466
895.00,1485
894.00,1502
893.00,1519
892.00,1536
891.00,1553
890.00,1570
889.00,1586
888.00,1603
887.00,1616
886.00,1621
885.00,1626
884.00,1631
883.00,1634
882.00,1624
881.00,1611
880.00,1597
879.00,1583
878.00,1573
877.00,1565
876.00,1557
875.00,1548
874.00,1545
873.00,1560
872.00,1576
871.00,1592
870.00,1609
869.00,1622
868.00,1634
867.00,1645
866.00,1657
865.00,1661
864.00,1653
863.00,1645
862.00,1637
861.00,1628
860.00,1615
859.00,1599
858.00,1584
857.00,1569
856.00,1576
855.00,1599
854.00,1622
853.00,1646
852.00,1669
851.00,1684
850.00,1699
849.00,1714
848.00,1729
847.00,1735
846.00,1738
845.00,1741
844.00,1743
843.00,1740
842.00,1726
841.00,1712
840.00,1698
839.00,1687
838.00,1703
837.00,1726
836.00,1749
835.00,1772
834.00,1795
833.00,1820
832.00,1844
831.00,1869
830.00,1892
829.00,1914
828.00,1935
827.00,1956
826.00,1976
825.00,1991
824.00,2003
823.00,2015
822.00,2027
821.00,2036
820.00,2035
819.00,2033
818.00,2031
817.00,2029
816.00,2043
815.00,2067
814.00,2089
813.00,2112
812.00,2131
811.00,2142
810.00,2152
809.00,2163
808.00,2174
807.00,2193
806.00,2216
805.00,2239
804.00,2262
803.00,2285
802.00,2309
801.00,2332
800.00,2356
799.00,2378
798.00,2374
797.00,2363
796.00,2352
795.00,2341
794.00,2337
793.00,2345
792.00,2353
791.00,2362
790.00,2369
789.00,2369
788.00,2368
787.00,2366
786.00,2364
785.00,2356
784.00,2340
783.00,2324
782.00,2307
781.00,2293
780.00,2295
779.00,2300
778.00,2306
777.00,2311
776.00,2317
775.00,2322
774.00,2328
773.00,2334
772.00,2341
771.00,2353
770.00,2366
769.00,2379
768.00,2393
767.00,2401
766.00,2405
765.00,2409
764.00,2413
763.00,2418
762.00,2434
761.00,2452
760.00,2470
759.00,2488
758.00,2499
757.00,2503
756.00,2506
755.00,2510
754.00,2514
753.00,2524
752.00,2536
751.00,2548
750.00,2560
749.00,2582
748.00,2619
747.00,2655
746.00,2691
745.00,2726
744.00,2746
743.00,2761
742.00,2777
741.00,2792
740.00,2804
739.00,2813
738.00,2821
737.00,2829
736.00,2837
735.00,2854
734.00,2874
733.00,2894
732.00,2914
731.00,2931
730.00,2940
729.00,2948
728.00,2957
727.00,2966
726.00,2984
725.00,3006
724.00,3028
723.00,3050
722.00,3068
721.00,3071
720.00,3072
719.00,3074
718.00,3075
717.00,3071
716.00,3064
715.00,3056
714.00,3048
713.00,3044
712.00,3054
711.00,3067
710.00,3079
709.00,3091
708.00,3102
707.00,3112
706.00,3121
705.00,3130
704.00,3139
703.00,3152
702.00,3165
701.00,3179
700.00,3192
699.00,3200
698.00,3196
697.00,3192
696.00,3188
695.00,3184
694.00,3184
693.00,3187
692.00,3189
691.00,3191
690.00,3195
689.00,3203
688.00,3211
687.00,3220
686.00,3228
685.00,3235
684.00,3240
683.00,3245
682.00,3250
681.00,3256
680.00,3264
679.00,3272
678.00,3280
677.00,3288
676.00,3298
675.00,3312
674.00,3326
673.00,3340
672.00,3354
671.00,3361
670.00,3364
669.00,3368
668.00,3372
667.00,3380
666.00,3403
665.00,3428
664.00,3453
663.00,3477
662.00,3500
661.00,3521
660.00,3541
659.00,3561
658.00,3583
657.00,3611
656.00,3641
655.00,3672
654.00,3703
653.00,3726
652.00,3734
651.00,3742
650.00,3750
649.00,3757
648.00,3757
647.00,3752
646.00,3747
645.00,3742
644.00,3738
643.00,3748
642.00,3760
641.00,3772
640.00,3783
639.00,3794
638.00,3804
637.00,3813
636.00,3822
635.00,3831
634.00,3841
633.00,3852
632.00,3863
631.00,3873
630.00,3883
629.00,3891
628.00,3899
627.00,3906
626.00,3913
625.00,3919
624.00,3922
623.00,3924
622.00,3927
621.00,3930
620.00,3939
619.00,3952
618.00,3965
617.00,3979
616.00,3988
615.00,3981
614.00,3971
613.00,3962
612.00,3952
611.00,3946
610.00,3944
609.00,3942
608.00,3940
607.00,3939
606.00,3949
605.00,3965
604.00,3981
603.00,3997
602.00,4012
601.00,4019
600.00,4026
599.00,4032
598.00,4038
597.00,4044
596.00,4049
595.00,4054
594.00,4059
593.00,4064
592.00,4072
591.00,4083
590.00,4094
589.00,4105
588.00,4116
587.00,4129
586.00,4143
585.00,4156
584.00,4169
583.00,4183
582.00,4197
581.00,4212
580.00,4227
579.00,4241
578.00,4258
577.00,4278
576.00,4298
575.00,4318
574.00,4338
573.00,4351
572.00,4362
571.00,4372
570.00,4383
569.00,4393
568.00,4400
567.00,4406
566.00,4413
565.00,4419
564.00,4430
563.00,4449
562.00,4468
561.00,4487
560.00,4506
559.00,4519
558.00,4526
557.00,4533
556.00,4540
555.00,4548
554.00,4561
553.00,4575
552.00,4589
551.00,4603
550.00,4614
549.00,4609
548.00,4603
547.00,4597
546.00,4590
545.00,4592
544.00,4606
543.00,4620
542.00,4635
541.00,4650
540.00,4665
539.00,4680
538.00,4696
537.00,4711
536.00,4725
535.00,4725
534.00,4722
533.00,4718
532.00,4713
531.00,4710
530.00,4710
529.00,4710
528.00,4710
527.00,4709
526.00,4712
525.00,4719
524.00,4725
523.00,4732
522.00,4739
521.00,4732
520.00,4713
519.00,4695
518.00,4676
517.00,4657
516.00,4649
515.00,4645
514.00,4641
513.00,4637
512.00,4632
511.00,4614
510.00,4595
509.00,4575
508.00,4555
507.00,4540
506.00,4537
505.00,4536
504.00,4534
503.00,4532
502.00,4528
501.00,4519
500.00,4509
499.00,4500
498.00,4491
497.00,4473
496.00,4448
495.00,4424
494.00,4400
493.00,4376
492.00,4367
491.00,4364
490.00,4362
489.00,4359
488.00,4354
487.00,4338
486.00,4319
485.00,4300
484.00,4281
483.00,4266
482.00,4269
481.00,4274
480.00,4278
479.00,4282
478.00,4293
477.00,4314
476.00,4335
475.00,4355
474.00,4377
473.00,4387
472.00,4384
471.00,4382
470.00,4380
469.00,4377
468.00,4382
467.00,4393
466.00,4403
465.00,4413
464.00,4423
463.00,4433
462.00,4442
461.00,4450
460.00,4459
459.00,4469
458.00,4478
457.00,4487
456.00,4497
455.00,4508
454.00,4515
453.00,4516
452.00,4516
451.00,4517
450.00,4516
449.00,4519
448.00,4528
447.00,4537
446.00,4545
445.00,4554
444.00,4564
443.00,4578
442.00,4593
441.00,4606
440.00,4619
439.00,4630
438.00,4635
437.00,4640
436.00,4645
435.00,4649
434.00,4658
433.00,4669
432.00,4678
431.00,4688
430.00,4697
429.00,4697
428.00,4693
427.00,4688
426.00,4683
425.00,4679
424.00,4681
423.00,4685
422.00,4688
421.00,4691
420.00,4695
419.00,4704
418.00,4714
417.00,4722
416.00,4731
415.00,4738
414.00,4739
413.00,4741
412.00,4742
411.00,4742
410.00,4743
409.00,4747
408.00,4750
407.00,4753
406.00,4757
405.00,4762
404.00,4768
403.00,4774
402.00,4779
401.00,4785
400.00,4787
399.00,4783
398.00,4779
397.00,4775
396.00,4770
395.00,4771
394.00,4778
393.00,4785
392.00,4792
391.00,4800
390.00,4799
389.00,4792
388.00,4784
387.00,4775
386.00,4767
385.00,4761
384.00,4757
383.00,4752
382.00,4747
381.00,4743
380.00,4729
379.00,4711
378.00,4693
377.00,4675
376.00,4657
375.00,4645
374.00,4637
373.00,4628
372.00,4620
371.00,4611
370.00,4592
369.00,4571
368.00,4550
367.00,4528
366.00,4508
365.00,4502
364.00,4500
363.00,4497
362.00,4495
361.00,4492
360.00,4486
359.00,4478
358.00,4470
357.00,4462
356.00,4455
355.00,4452
354.00,4451
353.00,4449
352.00,4447
351.00,4445
350.00,4440
349.00,4435
348.00,4430
347.00,4424
346.00,4419
345.00,4417
344.00,4416
343.00,4414
342.00,4411
341.00,4411
340.00,4422
339.00,4434
338.00,4446
337.00,4459
336.00,4471
335.00,4482
334.00,4494
333.00,4505
332.00,4517
331.00,4525
330.00,4517
329.00,4508
328.00,4497
327.00,4487
326.00,4474
325.00,4445
324.00,4414
323.00,4382
322.00,4351
321.00,4322
320.00,4306
319.00,4293
318.00,4279
317.00,4266
316.00,4252
315.00,4236
314.00,4220
313.00,4204
312.00,4188
311.00,4172
310.00,4163
309.00,4154
308.00,4146
307.00,4137
306.00,4128
305.00,4116
304.00,4105
303.00,4094
302.00,4083
301.00,4072
300.00,4060
299.00,4047
298.00,4034
297.00,4021
296.00,4008
295.00,3997
294.00,3986
293.00,3975
292.00,3963
291.00,3950
290.00,3938
289.00,3926
288.00,3914
287.00,3901
286.00,3888
285.00,3876
284.00,3864
283.00,3851
282.00,3838
281.00,3823
280.00,3793
279.00,3758
278.00,3723
277.00,3687
276.00,3653
275.00,3631
274.00,3613
273.00,3595
272.00,3578
271.00,3560
270.00,3536
269.00,3510
268.00,3484
267.00,3457
266.00,3430
265.00,3409
264.00,3392
263.00,3375
262.00,3357
261.00,3340
260.00,3324
259.00,3309
258.00,3295
257.00,3282
256.00,3268
255.00,3255
254.00,3242
253.00,3228
252.00,3216
251.00,3204
250.00,3189
249.00,3170
248.00,3151
247.00,3133
246.00,3115
245.00,3098
244.00,3085
243.00,3071
242.00,3057
241.00,3044
240.00,3030
239.00,3015
238.00,2999
237.00,2983
236.00,2968
235.00,2951
234.00,2929
233.00,2905
232.00,2881
231.00,2858
230.00,2836
229.00,2822
228.00,2809
227.00,2797
226.00,2784
225.00,2771
224.00,2753
223.00,2734
222.00,2715
221.00,2697
220.00,2678
219.00,2670
218.00,2667
217.00,2664
216.00,2659
215.00,2653
214.00,2634
213.00,2608
212.00,2580
211.00,2552
210.00,2526
209.00,2509
208.00,2497
207.00,2485
206.00,2475
205.00,2463
204.00,2450
203.00,2439
202.00,2427
201.00,2414
200.00,2401
199.00,2384
198.00,2357
197.00,2329
196.00,2301
195.00,2273
194.00,2247
193.00,2228
192.00,2211
191.00,2192
190.00,2174
189.00,2156
188.00,2140
187.00,2121
186.00,2103
185.00,2086
184.00,2064
183.00,2019
182.00,1968
181.00,1917
180.00,1866
179.00,1815
178.00,1780
177.00,1750
176.00,1722
175.00,1692
174.00,1662
173.00,1620
172.00,1567
171.00,1514
170.00,1461
169.00,1407
168.00,1368
167.00,1352
166.00,1335
165.00,1317
164.00,1301
163.00,1277
162.00,1236
161.00,1195
160.00,1153
159.00,1110
158.00,1069
157.00,1034
156.00,1000
155.00,965
154.00,930
153.00,896
152.00,860
151.00,823
150.00,786
149.00,749
148.00,712
147.00,670
146.00,625
145.00,580
144.00,535
143.00,491
142.00,448
141.00,409
140.00,370
139.00,330
138.00,292
137.00,252
136.00,215
135.00,178
134.00,140
133.00,104
132.00,66
131.00,29
130.00,-9
129.00,-47
128.00,-84
127.00,-122
126.00,-157
125.00,-192
124.00,-226
123.00,-261
122.00,-295
121.00,-316
120.00,-326
119.00,-333
118.00,-343
117.00,-353
116.00,-378
115.00,-428
114.00,-479
113.00,-530
112.00,-582
111.00,-638
110.00,-712
109.00,-789
108.00,-866
107.00,-943
106.00,-1019
105.00,-1084
104.00,-1147
103.00,-1209
102.00,-1272
101.00,-1348
100.00,-1423
