Created as New Dataset,
Raman Shift / cm-1,INT
3200.00,914
3199.00,890
3198.00,897
3197.00,1021
3196.00,1245
3195.00,1609
3194.00,1892
3193.00,1711
3192.00,1481
3191.00,1244
3190.00,1075
3189.00,943
3188.00,817
3187.00,651
3186.00,385
3185.00,76
3184.00,-238
3183.00,-267
3182.00,-75
3181.00,777
3180.00,1469
3179.00,1499
3178.00,1456
3177.00,1377
3176.00,1355
3175.00,1365
3174.00,1437
3173.00,1509
3172.00,1560
3171.00,1482
3170.00,1306
3169.00,1185
3168.00,1125
3167.00,1298
3166.00,1547
3165.00,1883
3164.00,1904
3163.00,1657
3162.00,1329
3161.00,1009
3160.00,942
3159.00,789
3158.00,330
3157.00,5
3156.00,-135
3155.00,239
3154.00,798
3153.00,840
3152.00,716
3151.00,429
3150.00,268
3149.00,336
3148.00,386
3147.00,429
3146.00,618
3145.00,824
3144.00,829
3143.00,749
3142.00,525
3141.00,388
3140.00,389
3139.00,249
3138.00,47
3137.00,143
3136.00,330
3135.00,511
3134.00,656
3133.00,699
3132.00,723
3131.00,727
3130.00,776
3129.00,848
3128.00,840
3127.00,846
3126.00,1114
3125.00,1298
3124.00,1097
3123.00,942
3122.00,901
3121.00,873
3120.00,851
3119.00,762
3118.00,646
3117.00,554
3116.00,500
3115.00,605
3114.00,650
3113.00,503
3112.00,505
3111.00,726
3110.00,1201
3109.00,1846
3108.00,1708
3107.00,1257
3106.00,732
3105.00,299
3104.00,290
3103.00,321
3102.00,326
3101.00,309
3100.00,259
3099.00,399
3098.00,705
3097.00,782
3096.00,737
3095.00,694
3094.00,671
3093.00,780
3092.00,888
3091.00,900
3090.00,850
3089.00,676
3088.00,618
3087.00,740
3086.00,862
3085.00,980
3084.00,990
3083.00,950
3082.00,1051
3081.00,1174
3080.00,1094
3079.00,960
3078.00,782
3077.00,695
3076.00,913
3075.00,1055
3074.00,992
3073.00,906
3072.00,792
3071.00,806
3070.00,935
3069.00,967
3068.00,940
3067.00,829
3066.00,701
3065.00,778
3064.00,904
3063.00,976
3062.00,1046
3061.00,1168
3060.00,1209
3059.00,967
3058.00,840
3057.00,1045
3056.00,1142
3055.00,1031
3054.00,999
3053.00,1063
3052.00,1123
3051.00,1178
3050.00,1334
3049.00,1547
3048.00,1576
3047.00,1521
3046.00,1430
3045.00,1329
3044.00,1245
3043.00,1151
3042.00,968
3041.00,779
3040.00,643
3039.00,510
3038.00,348
3037.00,213
3036.00,165
3035.00,267
3034.00,741
3033.00,1082
3032.00,1142
3031.00,1156
3030.00,1107
3029.00,1061
3028.00,1020
3027.00,1168
3026.00,1497
3025.00,1604
3024.00,1527
3023.00,1558
3022.00,1655
3021.00,1551
3020.00,1338
3019.00,1200
3018.00,1107
3017.00,1245
3016.00,1454
3015.00,1426
3014.00,1315
3013.00,1172
3012.00,1017
3011.00,865
3010.00,734
3009.00,736
3008.00,762
3007.00,747
3006.00,712
3005.00,601
3004.00,486
3003.00,427
3002.00,394
3001.00,431
3000.00,522
2999.00,819
2998.00,1063
2997.00,963
2996.00,860
2995.00,910
2994.00,945
2993.00,842
2992.00,743
2991.00,710
2990.00,676
2989.00,613
2988.00,545
2987.00,469
2986.00,401
2985.00,362
2984.00,329
2983.00,306
2982.00,289
2981.00,294
2980.00,334
2979.00,502
2978.00,653
2977.00,698
2976.00,727
2975.00,738
2974.00,773
2973.00,913
2972.00,1016
2971.00,918
2970.00,850
2969.00,999
2968.00,1130
2967.00,1079
2966.00,1015
2965.00,992
2964.00,1018
2963.00,1261
2962.00,1488
2961.00,1474
2960.00,1422
2959.00,1352
2958.00,1273
2957.00,1164
2956.00,1079
2955.00,1255
2954.00,1467
2953.00,1474
2952.00,1422
2951.00,1289
2950.00,1143
2949.00,1134
2948.00,1170
2947.00,1108
2946.00,1011
2945.00,1000
2944.00,1025
2943.00,1053
2942.00,1082
2941.00,1035
2940.00,941
2939.00,944
2938.00,1017
2937.00,1086
2936.00,1153
2935.00,1184
2934.00,1175
2933.00,1314
2932.00,1668
2931.00,1874
2930.00,1785
2929.00,1694
2928.00,1620
2927.00,1540
2926.00,1442
2925.00,1354
2924.00,1304
2923.00,1245
2922.00,1111
2921.00,998
2920.00,1074
2919.00,1178
2918.00,1236
2917.00,1275
2916.00,1225
2915.00,1152
2914.00,1187
2913.00,1266
2912.00,1253
2911.00,1183
2910.00,1178
2909.00,1221
2908.00,1166
2907.00,997
2906.00,978
2905.00,1191
2904.00,1317
2903.00,1239
2902.00,1162
2901.00,1110
2900.00,1087
2899.00,1180
2898.00,1271
2897.00,1248
2896.00,1210
2895.00,1224
2894.00,1251
2893.00,1263
2892.00,1269
2891.00,1367
2890.00,1525
2889.00,1592
2888.00,1580
2887.00,1526
2886.00,1411
2885.00,1285
2884.00,1147
2883.00,1020
2882.00,930
2881.00,894
2880.00,1130
2879.00,1375
2878.00,1388
2877.00,1346
2876.00,1237
2875.00,1104
2874.00,1016
2873.00,954
2872.00,973
2871.00,1074
2870.00,1136
2869.00,1131
2868.00,1103
2867.00,1020
2866.00,959
2865.00,1011
2864.00,1080
2863.00,1186
2862.00,1293
2861.00,1291
2860.00,1252
2859.00,1289
2858.00,1370
2857.00,1370
2856.00,1283
2855.00,1208
2854.00,1152
2853.00,1095
2852.00,1033
2851.00,971
2850.00,905
2849.00,847
2848.00,903
2847.00,993
2846.00,1003
2845.00,969
2844.00,1001
2843.00,1101
2842.00,1145
2841.00,1079
2840.00,1009
2839.00,939
2838.00,867
2837.00,801
2836.00,745
2835.00,854
2834.00,1018
2833.00,1072
2832.00,1044
2831.00,1064
2830.00,1156
2829.00,1208
2828.00,1148
2827.00,1088
2826.00,1052
2825.00,1029
2824.00,1114
2823.00,1226
2822.00,1196
2821.00,1076
2820.00,990
2819.00,940
2818.00,888
2817.00,829
2816.00,765
2815.00,663
2814.00,567
2813.00,624
2812.00,732
2811.00,778
2810.00,781
2809.00,806
2808.00,862
2807.00,895
2806.00,863
2805.00,832
2804.00,842
2803.00,856
2802.00,795
2801.00,701
2800.00,650
2799.00,640
2798.00,666
2797.00,776
2796.00,859
2795.00,799
2794.00,733
2793.00,813
2792.00,942
2791.00,960
2790.00,900
2789.00,828
2788.00,736
2787.00,689
2786.00,824
2785.00,962
2784.00,964
2783.00,929
2782.00,1024
2781.00,1204
2780.00,1272
2779.00,1177
2778.00,1102
2777.00,1114
2776.00,1124
2775.00,1018
2774.00,881
2773.00,906
2772.00,1031
2771.00,1081
2770.00,1002
2769.00,916
2768.00,812
2767.00,705
2766.00,611
2765.00,524
2764.00,593
2763.00,782
2762.00,884
2761.00,794
2760.00,707
2759.00,668
2758.00,642
2757.00,730
2756.00,870
2755.00,925
2754.00,869
2753.00,825
2752.00,816
2751.00,808
2750.00,796
2749.00,784
2748.00,754
2747.00,713
2746.00,669
2745.00,617
2744.00,566
2743.00,516
2742.00,466
2741.00,412
2740.00,356
2739.00,364
2738.00,458
2737.00,514
2736.00,432
2735.00,349
2734.00,422
2733.00,543
2732.00,632
2731.00,692
2730.00,753
2729.00,818
2728.00,877
2727.00,876
2726.00,862
2725.00,809
2724.00,730
2723.00,692
2722.00,760
2721.00,825
2720.00,823
2719.00,806
2718.00,756
2717.00,684
2716.00,669
2715.00,766
2714.00,851
2713.00,842
2712.00,815
2711.00,723
2710.00,590
2709.00,495
2708.00,475
2707.00,457
2706.00,435
2705.00,413
2704.00,500
2703.00,661
2702.00,798
2701.00,884
2700.00,950
2699.00,891
2698.00,810
2697.00,784
2696.00,798
2695.00,776
2694.00,663
2693.00,556
2692.00,519
2691.00,500
2690.00,479
2689.00,455
2688.00,415
2687.00,324
2686.00,234
2685.00,230
2684.00,255
2683.00,269
2682.00,270
2681.00,267
2680.00,246
2679.00,225
2678.00,280
2677.00,375
2676.00,406
2675.00,326
2674.00,249
2673.00,211
2672.00,182
2671.00,197
2670.00,243
2669.00,276
2668.00,260
2667.00,245
2666.00,286
2665.00,345
2664.00,336
2663.00,241
2662.00,178
2661.00,282
2660.00,416
2659.00,1008
2658.00,1882
2657.00,2306
2656.00,1516
2655.00,762
2654.00,481
2653.00,328
2652.00,233
2651.00,203
2650.00,197
2649.00,305
2648.00,427
2647.00,477
2646.00,480
2645.00,488
2644.00,511
2643.00,545
2642.00,751
2641.00,1006
2640.00,1176
2639.00,1225
2638.00,1246
2637.00,1110
2636.00,949
2635.00,854
2634.00,809
2633.00,758
2632.00,678
2631.00,598
2630.00,551
2629.00,519
2628.00,488
2627.00,459
2626.00,432
2625.00,424
2624.00,421
2623.00,385
2622.00,305
2621.00,250
2620.00,355
2619.00,488
2618.00,544
2617.00,532
2616.00,529
2615.00,570
2614.00,615
2613.00,619
2612.00,597
2611.00,586
2610.00,605
2609.00,624
2608.00,576
2607.00,499
2606.00,415
2605.00,315
2604.00,225
2603.00,270
2602.00,356
2601.00,378
2600.00,299
2599.00,219
2598.00,123
2597.00,24
2596.00,27
2595.00,161
2594.00,278
2593.00,288
2592.00,276
2591.00,247
2590.00,200
2589.00,156
2588.00,136
2587.00,118
2586.00,108
2585.00,103
2584.00,85
2583.00,5
2582.00,-82
2581.00,-32
2580.00,125
2579.00,274
2578.00,391
2577.00,500
2576.00,488
2575.00,390
2574.00,303
2573.00,257
2572.00,216
2571.00,165
2570.00,107
2569.00,42
2568.00,-48
2567.00,-140
2566.00,-64
2565.00,121
2564.00,269
2563.00,250
2562.00,212
2561.00,175
2560.00,139
2559.00,93
2558.00,6
2557.00,-86
2556.00,-8
2555.00,197
2554.00,393
2553.00,519
2552.00,631
2551.00,633
2550.00,533
2549.00,448
2548.00,446
2547.00,457
2546.00,416
2545.00,318
2544.00,233
2543.00,226
2542.00,236
2541.00,203
2540.00,115
2539.00,30
2538.00,-36
2537.00,-96
2536.00,-137
2535.00,-149
2534.00,-153
2533.00,-47
2532.00,97
2531.00,198
2530.00,217
2529.00,234
2528.00,241
2527.00,245
2526.00,236
2525.00,190
2524.00,141
2523.00,76
2522.00,1
2521.00,-61
2520.00,-58
2519.00,-48
2518.00,-35
2517.00,-19
2516.00,-3
2515.00,18
2514.00,41
2513.00,47
2512.00,28
2511.00,5
2510.00,-79
2509.00,-181
2508.00,-239
2507.00,-188
2506.00,-131
2505.00,-50
2504.00,44
2503.00,101
2502.00,35
2501.00,-43
2500.00,-82
2499.00,-87
2498.00,-95
2497.00,-130
2496.00,-170
2495.00,-221
2494.00,-293
2493.00,-363
2492.00,-392
2491.00,-405
2490.00,-384
2489.00,-249
2488.00,-102
2487.00,-29
2486.00,-9
2485.00,4
2484.00,-21
2483.00,-51
2482.00,-107
2481.00,-198
2480.00,-290
2479.00,-398
2478.00,-510
2477.00,-557
2476.00,-425
2475.00,-283
2474.00,-264
2473.00,-326
2472.00,-384
2471.00,-416
2470.00,-442
2469.00,-425
2468.00,-327
2467.00,-230
2466.00,-183
2465.00,-160
2464.00,-141
2463.00,-134
2462.00,-128
2461.00,-132
2460.00,-144
2459.00,-154
2458.00,-145
2457.00,-131
2456.00,-118
2455.00,-104
2454.00,-90
2453.00,-126
2452.00,-199
2451.00,-273
2450.00,-353
2449.00,-434
2448.00,-434
2447.00,-295
2446.00,-157
2445.00,-174
2444.00,-276
2443.00,-346
2442.00,-249
2441.00,-129
2440.00,-68
2439.00,-88
2438.00,-110
2437.00,-172
2436.00,-252
2435.00,-313
2434.00,-300
2433.00,-281
2432.00,-255
2431.00,-218
2430.00,-185
2429.00,-223
2428.00,-285
2427.00,-327
2426.00,-284
2425.00,-231
2424.00,-191
2423.00,-165
2422.00,-143
2421.00,-165
2420.00,-205
2419.00,-237
2418.00,-238
2417.00,-236
2416.00,-214
2415.00,-167
2414.00,-122
2413.00,-92
2412.00,-67
2411.00,-49
2410.00,-60
2409.00,-74
2408.00,-96
2407.00,-130
2406.00,-161
2405.00,-75
2404.00,70
2403.00,189
2402.00,172
2401.00,134
2400.00,104
2399.00,90
2398.00,77
2397.00,37
2396.00,-19
2395.00,-70
2394.00,-80
2393.00,-81
2392.00,-96
2391.00,-152
2390.00,-210
2389.00,-255
2388.00,-286
2387.00,-312
2386.00,-255
2385.00,-165
2384.00,-93
2383.00,-81
2382.00,-75
2381.00,-92
2380.00,-144
2379.00,-195
2378.00,-192
2377.00,-161
2376.00,-141
2375.00,-212
2374.00,-302
2373.00,-343
2372.00,-248
2371.00,-142
2370.00,-124
2369.00,-190
2368.00,-255
2367.00,-291
2366.00,-315
2365.00,-325
2364.00,-257
2363.00,-179
2362.00,-144
2361.00,-201
2360.00,-261
2359.00,-306
2358.00,-339
2357.00,-368
2356.00,-354
2355.00,-326
2354.00,-297
2353.00,-262
2352.00,-227
2351.00,-222
2350.00,-276
2349.00,-332
2348.00,-350
2347.00,-337
2346.00,-315
2345.00,-114
2344.00,149
2343.00,369
2342.00,381
2341.00,361
2340.00,325
2339.00,249
2338.00,172
2337.00,83
2336.00,-20
2335.00,-121
2334.00,-218
2333.00,-313
2332.00,-391
2331.00,-357
2330.00,-304
2329.00,-267
2328.00,-278
2327.00,-293
2326.00,-326
2325.00,-387
2324.00,-448
2323.00,-490
2322.00,-520
2321.00,-552
2320.00,-597
2319.00,-645
2318.00,-666
2317.00,-551
2316.00,-420
2315.00,-294
2314.00,-181
2313.00,-72
2312.00,-9
2311.00,1
2310.00,10
2309.00,-3
2308.00,-29
2307.00,-51
2306.00,-39
2305.00,-21
2304.00,10
2303.00,92
2302.00,176
2301.00,230
2300.00,209
2299.00,185
2298.00,174
2297.00,178
2296.00,180
2295.00,143
2294.00,84
2293.00,30
2292.00,45
2291.00,80
2290.00,114
2289.00,153
2288.00,192
2287.00,211
2286.00,180
2285.00,145
2284.00,90
2283.00,2
2282.00,-86
2281.00,-144
2280.00,-181
2279.00,-212
2278.00,-107
2277.00,53
2276.00,200
2275.00,189
2274.00,135
2273.00,85
2272.00,52
2271.00,22
2270.00,-10
2269.00,-47
2268.00,-83
2267.00,-123
2266.00,-169
2265.00,-214
2264.00,-184
2263.00,-76
2262.00,32
2261.00,124
2260.00,210
2259.00,289
2258.00,254
2257.00,177
2256.00,105
2255.00,46
2254.00,-11
2253.00,-62
2252.00,-93
2251.00,-121
2250.00,-160
2249.00,-229
2248.00,-299
2247.00,-286
2246.00,-130
2245.00,24
2244.00,106
2243.00,116
2242.00,126
2241.00,150
2240.00,185
2239.00,215
2238.00,218
2237.00,209
2236.00,203
2235.00,226
2234.00,257
2233.00,278
2232.00,224
2231.00,158
2230.00,104
2229.00,99
2228.00,100
2227.00,118
2226.00,190
2225.00,265
2224.00,336
2223.00,402
2222.00,467
2221.00,490
2220.00,460
2219.00,431
2218.00,456
2217.00,533
2216.00,608
2215.00,623
2214.00,597
2213.00,572
2212.00,572
2211.00,585
2210.00,596
2209.00,559
2208.00,504
2207.00,457
2206.00,494
2205.00,554
2204.00,608
2203.00,621
2202.00,625
2201.00,624
2200.00,598
2199.00,567
2198.00,568
2197.00,698
2196.00,841
2195.00,951
2194.00,952
2193.00,945
2192.00,932
2191.00,904
2190.00,875
2189.00,848
2188.00,824
2187.00,800
2186.00,793
2185.00,813
2184.00,833
2183.00,880
2182.00,957
2181.00,1035
2180.00,1081
2179.00,1102
2178.00,1122
2177.00,1123
2176.00,1111
2175.00,1099
2174.00,1118
2173.00,1159
2172.00,1199
2171.00,1197
2170.00,1172
2169.00,1147
2168.00,1134
2167.00,1124
2166.00,1115
2165.00,1110
2164.00,1105
2163.00,1102
2162.00,1107
2161.00,1114
2160.00,1119
2159.00,1100
2158.00,1072
2157.00,1052
2156.00,1119
2155.00,1213
2154.00,1293
2153.00,1241
2152.00,1157
2151.00,1080
2150.00,1052
2149.00,1034
2148.00,1022
2147.00,1048
2146.00,1082
2145.00,1116
2144.00,1160
2143.00,1208
2142.00,1269
2141.00,1408
2140.00,1556
2139.00,1682
2138.00,1676
2137.00,1645
2136.00,1604
2135.00,1509
2134.00,1405
2133.00,1335
2132.00,1475
2131.00,1644
2130.00,1781
2129.00,1721
2128.00,1625
2127.00,1532
2126.00,1457
2125.00,1383
2124.00,1344
2123.00,1512
2122.00,1706
2121.00,1873
2120.00,1876
2119.00,1848
2118.00,1814
2117.00,1739
2116.00,1657
2115.00,1593
2114.00,1656
2113.00,1745
2112.00,1823
2111.00,1844
2110.00,1855
2109.00,1852
2108.00,1750
2107.00,1626
2106.00,1535
2105.00,1740
2104.00,2016
2103.00,2283
2102.00,2390
2101.00,2456
2100.00,2512
2099.00,2431
2098.00,2309
2097.00,2195
2096.00,2208
2095.00,2263
2094.00,2311
2093.00,2182
2092.00,1986
2091.00,1795
2090.00,1818
2089.00,1932
2088.00,2045
2087.00,2131
2086.00,2205
2085.00,2275
2084.00,2241
2083.00,2142
2082.00,2044
2081.00,2038
2080.00,2102
2079.00,2166
2078.00,2278
2077.00,2437
2076.00,2600
2075.00,2706
2074.00,2749
2073.00,2792
2072.00,2786
2071.00,2703
2070.00,2621
2069.00,2630
2068.00,2807
2067.00,2986
2066.00,3062
2065.00,2881
2064.00,2692
2063.00,2565
2062.00,2637
2061.00,2720
2060.00,2744
2059.00,2545
2058.00,2325
2057.00,2163
2056.00,2317
2055.00,2513
2054.00,2702
2053.00,2845
2052.00,2978
2051.00,3099
2050.00,3100
2049.00,3066
2048.00,3032
2047.00,2998
2046.00,2964
2045.00,2931
2044.00,2946
2043.00,2985
2042.00,3024
2041.00,3065
2040.00,3106
2039.00,3147
2038.00,3138
2037.00,3075
2036.00,3013
2035.00,3035
2034.00,3198
2033.00,3363
2032.00,3458
2031.00,3385
2030.00,3306
2029.00,3240
2028.00,3221
2027.00,3204
2026.00,3185
2025.00,3149
2024.00,3111
2023.00,3076
2022.00,3066
2021.00,3063
2020.00,3059
2019.00,3044
2018.00,3025
2017.00,3006
2016.00,3053
2015.00,3136
2014.00,3218
2013.00,3272
2012.00,3301
2011.00,3332
2010.00,3378
2009.00,3448
2008.00,3518
2007.00,3591
2006.00,3681
2005.00,3772
2004.00,3817
2003.00,3706
2002.00,3581
2001.00,3463
2000.00,3369
1999.00,3280
1998.00,3206
1997.00,3322
1996.00,3493
1995.00,3653
1994.00,3666
1993.00,3603
1992.00,3541
1991.00,3510
1990.00,3506
1989.00,3502
1988.00,3497
1987.00,3490
1986.00,3484
1985.00,3468
1984.00,3427
1983.00,3385
1982.00,3351
1981.00,3354
1980.00,3363
1979.00,3371
1978.00,3369
1977.00,3365
1976.00,3365
1975.00,3463
1974.00,3603
1973.00,3747
1972.00,3762
1971.00,3676
1970.00,3590
1969.00,3576
1968.00,3679
1967.00,3780
1966.00,3886
1965.00,4010
1964.00,4139
1963.00,4250
1962.00,4260
1961.00,4255
1960.00,4244
1959.00,4161
1958.00,4058
1957.00,3955
1956.00,3898
1955.00,3871
1954.00,3844
1953.00,3846
1952.00,3884
1951.00,3922
1950.00,4005
1949.00,4198
1948.00,4390
1947.00,4554
1946.00,4573
1945.00,4572
1944.00,4576
1943.00,4624
1942.00,4683
1941.00,4741
1940.00,4749
1939.00,4726
1938.00,4702
1937.00,4735
1936.00,4851
1935.00,4963
1934.00,5060
1933.00,5114
1932.00,5164
1931.00,5214
1930.00,5262
1929.00,5311
1928.00,5354
1927.00,5276
1926.00,5152
1925.00,5029
1924.00,5021
1923.00,5116
1922.00,5212
1921.00,5266
1920.00,5228
1919.00,5187
1918.00,5151
1917.00,5141
1916.00,5134
1915.00,5126
1914.00,5099
1913.00,5068
1912.00,5036
1911.00,5021
1910.00,5019
1909.00,5017
1908.00,4995
1907.00,4938
1906.00,4879
1905.00,4857
1904.00,5004
1903.00,5171
1902.00,5332
1901.00,5409
1900.00,5457
1899.00,5504
1898.00,5484
1897.00,5409
1896.00,5333
1895.00,5260
1894.00,5192
1893.00,5124
1892.00,5076
1891.00,5136
1890.00,5213
1889.00,5290
1888.00,5399
1887.00,5519
1886.00,5639
1885.00,5720
1884.00,5763
1883.00,5806
1882.00,5826
1881.00,5787
1880.00,5745
1879.00,5707
1878.00,5703
1877.00,5705
1876.00,5707
1875.00,5675
1874.00,5626
1873.00,5577
1872.00,5607
1871.00,5750
1870.00,5893
1869.00,5997
1868.00,5958
1867.00,5906
1866.00,5859
1865.00,5905
1864.00,5982
1863.00,6059
1862.00,6085
1861.00,6064
1860.00,6043
1859.00,6049
1858.00,6119
1857.00,6192
1856.00,6259
1855.00,6240
1854.00,6200
1853.00,6160
1852.00,6117
1851.00,6072
1850.00,6027
1849.00,6019
1848.00,6092
1847.00,6167
1846.00,6234
1845.00,6246
1844.00,6249
1843.00,6251
1842.00,6293
1841.00,6358
1840.00,6423
1839.00,6449
1838.00,6406
1837.00,6364
1836.00,6323
1835.00,6291
1834.00,6262
1833.00,6233
1832.00,6243
1831.00,6271
1830.00,6301
1829.00,6336
1828.00,6377
1827.00,6417
1826.00,6455
1825.00,6492
1824.00,6528
1823.00,6562
1822.00,6536
1821.00,6481
1820.00,6425
1819.00,6415
1818.00,6482
1817.00,6551
1816.00,6627
1815.00,6732
1814.00,6837
1813.00,6941
1812.00,6979
1811.00,6975
1810.00,6970
1809.00,6981
1808.00,7029
1807.00,7079
1806.00,7118
1805.00,7084
1804.00,7034
1803.00,6983
1802.00,6917
1801.00,6839
1800.00,6760
1799.00,6701
1798.00,6700
1797.00,6703
1796.00,6711
1795.00,6811
1794.00,6946
1793.00,7080
1792.00,7133
1791.00,7099
1790.00,7065
1789.00,7042
1788.00,7065
1787.00,7095
1786.00,7123
1785.00,7151
1784.00,7180
1783.00,7208
1782.00,7229
1781.00,7237
1780.00,7244
1779.00,7253
1778.00,7278
1777.00,7304
1776.00,7330
1775.00,7344
1774.00,7350
1773.00,7356
1772.00,7353
1771.00,7319
1770.00,7283
1769.00,7249
1768.00,7255
1767.00,7277
1766.00,7300
1765.00,7359
1764.00,7478
1763.00,7597
1762.00,7707
1761.00,7738
1760.00,7753
1759.00,7767
1758.00,7815
1757.00,7893
1756.00,7971
1755.00,8058
1754.00,8161
1753.00,8266
1752.00,8369
1751.00,8377
1750.00,8339
1749.00,8300
1748.00,8330
1747.00,8523
1746.00,8730
1745.00,8916
1744.00,8936
1743.00,8911
1742.00,8885
1741.00,8854
1740.00,8815
1739.00,8776
1738.00,8739
1737.00,8717
1736.00,8698
1735.00,8678
1734.00,8675
1733.00,8686
1732.00,8697
1731.00,8708
1730.00,8715
1729.00,8723
1728.00,8734
1727.00,8893
1726.00,9138
1725.00,9382
1724.00,9552
1723.00,9515
1722.00,9465
1721.00,9421
1720.00,9514
1719.00,9660
1718.00,9807
1717.00,9867
1716.00,9752
1715.00,9634
1714.00,9528
1713.00,9550
1712.00,9611
1711.00,9671
1710.00,9708
1709.00,9707
1708.00,9705
1707.00,9712
1706.00,9786
1705.00,9871
1704.00,9959
1703.00,10022
1702.00,10051
1701.00,10080
1700.00,10106
1699.00,10135
1698.00,10163
1697.00,10192
1696.00,10188
1695.00,10151
1694.00,10114
1693.00,10081
1692.00,10066
1691.00,10055
1690.00,10043
1689.00,10056
1688.00,10095
1687.00,10131
1686.00,10159
1685.00,10138
1684.00,10110
1683.00,10081
1682.00,10102
1681.00,10169
1680.00,10235
1679.00,10294
1678.00,10328
1677.00,10358
1676.00,10386
1675.00,10382
1674.00,10346
1673.00,10311
1672.00,10297
1671.00,10398
1670.00,10511
1669.00,10629
1668.00,10788
1667.00,10980
1666.00,11178
1665.00,11359
1664.00,11447
1663.00,11523
1662.00,11599
1661.00,11635
1660.00,11633
1659.00,11632
1658.00,11630
1657.00,11622
1656.00,11614
1655.00,11606
1654.00,11640
1653.00,11724
1652.00,11812
1651.00,11889
1650.00,11875
1649.00,11841
1648.00,11807
1647.00,11878
1646.00,12104
1645.00,12331
1644.00,12540
1643.00,12469
1642.00,12317
1641.00,12165
1640.00,12082
1639.00,12148
1638.00,12215
1637.00,12279
1636.00,12280
1635.00,12255
1634.00,12230
1633.00,12227
1632.00,12286
1631.00,12351
1630.00,12414
1629.00,12413
1628.00,12378
1627.00,12343
1626.00,12307
1625.00,12266
1624.00,12225
1623.00,12184
1622.00,12173
1621.00,12189
1620.00,12207
1619.00,12211
1618.00,12136
1617.00,12046
1616.00,11958
1615.00,11880
1614.00,11818
1613.00,11756
1612.00,11693
1611.00,11602
1610.00,11504
1609.00,11406
1608.00,11321
1607.00,11267
1606.00,11215
1605.00,11162
1604.00,11070
1603.00,10957
1602.00,10845
1601.00,10738
1600.00,10653
1599.00,10569
1598.00,10486
1597.00,10403
1596.00,10319
1595.00,10236
1594.00,10150
1593.00,10047
1592.00,9940
1591.00,9833
1590.00,9740
1589.00,9672
1588.00,9605
1587.00,9539
1586.00,9434
1585.00,9312
1584.00,9192
1583.00,9077
1582.00,8982
1581.00,8890
1580.00,8799
1579.00,8715
1578.00,8640
1577.00,8564
1576.00,8492
1575.00,8455
1574.00,8427
1573.00,8399
1572.00,8382
1571.00,8389
1570.00,8397
1569.00,8404
1568.00,8382
1567.00,8344
1566.00,8306
1565.00,8256
1564.00,8148
1563.00,8031
1562.00,7916
1561.00,7831
1560.00,7787
1559.00,7743
1558.00,7699
1557.00,7649
1556.00,7596
1555.00,7543
1554.00,7476
1553.00,7359
1552.00,7238
1551.00,7119
1550.00,7015
1549.00,6927
1548.00,6839
1547.00,6756
1546.00,6715
1545.00,6685
1544.00,6655
1543.00,6623
1542.00,6586
1541.00,6549
1540.00,6511
1539.00,6474
1538.00,6437
1537.00,6400
1536.00,6361
1535.00,6304
1534.00,6243
1533.00,6182
1532.00,6127
1531.00,6083
1530.00,6040
1529.00,5997
1528.00,5949
1527.00,5897
1526.00,5845
1525.00,5792
1524.00,5729
1523.00,5665
1522.00,5601
1521.00,5539
1520.00,5483
1519.00,5428
1518.00,5371
1517.00,5318
1516.00,5268
1515.00,5217
1514.00,5165
1513.00,5096
1512.00,5025
1511.00,4955
1510.00,4880
1509.00,4800
1508.00,4720
1507.00,4641
1506.00,4583
1505.00,4546
1504.00,4509
1503.00,4472
1502.00,4447
1501.00,4426
1500.00,4404
1499.00,4389
1498.00,4397
1497.00,4409
1496.00,4420
1495.00,4390
1494.00,4307
1493.00,4225
1492.00,4145
1491.00,4086
1490.00,4038
1489.00,3990
1488.00,3951
1487.00,3957
1486.00,3972
1485.00,3986
1484.00,3982
1483.00,3939
1482.00,3895
1481.00,3851
1480.00,3807
1479.00,3762
1478.00,3718
1477.00,3674
1476.00,3642
1475.00,3614
1474.00,3586
1473.00,3562
1472.00,3553
1471.00,3544
1470.00,3536
1469.00,3535
1468.00,3546
1467.00,3557
1466.00,3566
1465.00,3541
1464.00,3498
1463.00,3455
1462.00,3417
1461.00,3426
1460.00,3444
1459.00,3461
1458.00,3474
1457.00,3472
1456.00,3469
1455.00,3466
1454.00,3447
1453.00,3409
1452.00,3372
1451.00,3333
1450.00,3267
1449.00,3192
1448.00,3116
1447.00,3046
1446.00,3022
1445.00,3008
1444.00,2993
1443.00,2980
1442.00,2967
1441.00,2956
1440.00,2944
1439.00,2926
1438.00,2899
1437.00,2873
1436.00,2846
1435.00,2815
1434.00,2783
1433.00,2751
1432.00,2716
1431.00,2648
1430.00,2569
1429.00,2494
1428.00,2428
1427.00,2402
1426.00,2381
1425.00,2359
1424.00,2338
1423.00,2318
1422.00,2299
1421.00,2279
1420.00,2257
1419.00,2232
1418.00,2208
1417.00,2183
1416.00,2148
1415.00,2110
1414.00,2071
1413.00,2031
1412.00,1981
1411.00,1929
1410.00,1878
1409.00,1838
1408.00,1832
1407.00,1829
1406.00,1826
1405.00,1821
1404.00,1813
1403.00,1806
1402.00,1799
1401.00,1779
1400.00,1751
1399.00,1722
1398.00,1694
1397.00,1661
1396.00,1627
1395.00,1593
1394.00,1561
1393.00,1539
1392.00,1520
1391.00,1500
1390.00,1483
1389.00,1470
1388.00,1458
1387.00,1446
1386.00,1448
1385.00,1477
1384.00,1507
1383.00,1537
1382.00,1529
1381.00,1482
1380.00,1436
1379.00,1391
1378.00,1360
1377.00,1336
1376.00,1312
1375.00,1289
1374.00,1271
1373.00,1255
1372.00,1239
1371.00,1222
1370.00,1203
1369.00,1183
1368.00,1163
1367.00,1142
1366.00,1117
1365.00,1092
1364.00,1066
1363.00,1044
1362.00,1028
1361.00,1012
1360.00,996
1359.00,976
1358.00,952
1357.00,928
1356.00,904
1355.00,879
1354.00,853
1353.00,827
1352.00,802
1351.00,793
1350.00,791
1349.00,790
1348.00,788
1347.00,785
1346.00,781
1345.00,778
1344.00,772
1343.00,754
1342.00,734
1341.00,714
1340.00,690
1339.00,654
1338.00,617
1337.00,580
1336.00,542
1335.00,500
1334.00,459
1333.00,419
1332.00,389
1331.00,374
1330.00,360
1329.00,346
1328.00,341
1327.00,345
1326.00,349
1325.00,354
1324.00,336
1323.00,306
1322.00,277
1321.00,246
1320.00,212
1319.00,177
1318.00,141
1317.00,106
1316.00,80
1315.00,56
1314.00,32
1313.00,10
1312.00,-4
1311.00,-16
1310.00,-27
1309.00,-37
1308.00,-37
1307.00,-36
1306.00,-35
1305.00,-46
1304.00,-99
1303.00,-155
1302.00,-211
1301.00,-254
1300.00,-259
1299.00,-262
1298.00,-265
1297.00,-280
1296.00,-317
1295.00,-355
1294.00,-393
1293.00,-423
1292.00,-438
1291.00,-452
1290.00,-467
1289.00,-473
1288.00,-467
1287.00,-461
1286.00,-455
1285.00,-463
1284.00,-482
1283.00,-501
1282.00,-521
1281.00,-529
1280.00,-530
1279.00,-530
1278.00,-530
1277.00,-522
1276.00,-510
1275.00,-498
1274.00,-487
1273.00,-520
1272.00,-575
1271.00,-628
1270.00,-680
1269.00,-696
1268.00,-698
1267.00,-700
1266.00,-701
1265.00,-696
1264.00,-689
1263.00,-682
1262.00,-675
1261.00,-682
1260.00,-692
1259.00,-701
1258.00,-710
1257.00,-713
1256.00,-714
1255.00,-715
1254.00,-714
1253.00,-693
1252.00,-667
1251.00,-640
1250.00,-614
1249.00,-591
1248.00,-567
1247.00,-544
1246.00,-525
1245.00,-528
1244.00,-537
1243.00,-546
1242.00,-550
1241.00,-536
1240.00,-518
1239.00,-501
1238.00,-483
1237.00,-469
1236.00,-454
1235.00,-439
1234.00,-426
1233.00,-425
1232.00,-425
1231.00,-424
1230.00,-425
1229.00,-433
1228.00,-443
1227.00,-452
1226.00,-452
1225.00,-410
1224.00,-363
1223.00,-316
1222.00,-275
1221.00,-269
1220.00,-266
1219.00,-264
1218.00,-262
1217.00,-260
1216.00,-259
1215.00,-257
1214.00,-256
1213.00,-263
1212.00,-270
1211.00,-277
1210.00,-281
1209.00,-259
1208.00,-235
1207.00,-211
1206.00,-184
1205.00,-142
1204.00,-99
1203.00,-55
1202.00,-17
1201.00,-18
1200.00,-25
1199.00,-33
1198.00,-40
1197.00,-44
1196.00,-47
1195.00,-50
1194.00,-52
1193.00,-44
1192.00,-33
1191.00,-23
1190.00,-13
1189.00,-1
1188.00,10
1187.00,22
1186.00,30
1185.00,-4
1184.00,-49
1183.00,-93
1182.00,-136
1181.00,-155
1180.00,-166
1179.00,-177
1178.00,-188
1177.00,-207
1176.00,-227
1175.00,-247
1174.00,-267
1173.00,-283
1172.00,-296
1171.00,-308
1170.00,-321
1169.00,-344
1168.00,-374
1167.00,-403
1166.00,-432
1165.00,-439
1164.00,-430
1163.00,-420
1162.00,-411
1161.00,-421
1160.00,-449
1159.00,-476
1158.00,-504
1157.00,-523
1156.00,-528
1155.00,-534
1154.00,-540
1153.00,-535
1152.00,-512
1151.00,-489
1150.00,-467
1149.00,-453
1148.00,-458
1147.00,-465
1146.00,-471
1145.00,-481
1144.00,-502
1143.00,-523
1142.00,-544
1141.00,-561
1140.00,-561
1139.00,-558
1138.00,-556
1137.00,-555
1136.00,-563
1135.00,-571
1134.00,-580
1133.00,-586
1132.00,-574
1131.00,-556
1130.00,-538
1129.00,-521
1128.00,-512
1127.00,-505
1126.00,-497
1125.00,-490
1124.00,-473
1123.00,-452
1122.00,-431
1121.00,-410
1120.00,-402
1119.00,-405
1118.00,-408
1117.00,-411
1116.00,-423
1115.00,-447
1114.00,-470
1113.00,-494
1112.00,-494
1111.00,-456
1110.00,-417
1109.00,-377
1108.00,-333
1107.00,-277
1106.00,-217
1105.00,-157
1104.00,-113
1103.00,-128
1102.00,-150
1101.00,-172
1100.00,-194
1099.00,-210
1098.00,-226
1097.00,-242
1096.00,-257
1095.00,-263
1094.00,-266
1093.00,-270
1092.00,-273
1091.00,-270
1090.00,-263
1089.00,-257
1088.00,-250
1087.00,-242
1086.00,-233
1085.00,-223
1084.00,-213
1083.00,-199
1082.00,-175
1081.00,-151
1080.00,-128
1079.00,-106
1078.00,-86
1077.00,-67
1076.00,-48
1075.00,-27
1074.00,1
1073.00,29
1072.00,57
1071.00,85
1070.00,95
1069.00,101
1068.00,107
1067.00,113
1066.00,132
1065.00,158
1064.00,184
1063.00,209
1062.00,217
1061.00,211
1060.00,205
1059.00,198
1058.00,188
1057.00,171
1056.00,153
1055.00,136
1054.00,126
1053.00,136
1052.00,147
1051.00,158
1050.00,172
1049.00,201
1048.00,234
1047.00,267
1046.00,299
1045.00,333
1044.00,366
1043.00,399
1042.00,432
1041.00,450
1040.00,457
1039.00,464
1038.00,471
1037.00,467
1036.00,445
1035.00,423
1034.00,401
1033.00,392
1032.00,424
1031.00,459
1030.00,496
1029.00,529
1028.00,548
1027.00,564
1026.00,580
1025.00,597
1024.00,619
1023.00,643
1022.00,667
1021.00,691
1020.00,700
1019.00,697
1018.00,693
1017.00,690
1016.00,684
1015.00,677
1014.00,669
1013.00,661
1012.00,651
1011.00,631
1010.00,609
1009.00,587
1008.00,568
1007.00,575
1006.00,590
1005.00,606
1004.00,622
1003.00,635
1002.00,647
1001.00,658
1000.00,670
999.00,677
998.00,677
997.00,677
996.00,677
995.00,673
994.00,653
993.00,632
992.00,611
991.00,595
990.00,633
989.00,689
988.00,745
987.00,801
986.00,831
985.00,839
984.00,847
983.00,855
982.00,856
981.00,843
980.00,830
979.00,817
978.00,807
977.00,815
976.00,825
975.00,835
974.00,845
973.00,861
972.00,880
971.00,899
970.00,918
969.00,929
968.00,931
967.00,934
966.00,937
965.00,937
964.00,926
963.00,915
962.00,905
961.00,896
960.00,900
959.00,908
958.00,916
957.00,924
956.00,935
955.00,948
954.00,960
953.00,973
952.00,985
951.00,996
950.00,1006
949.00,1017
948.00,1028
947.00,1045
946.00,1063
945.00,1080
944.00,1097
943.00,1102
942.00,1101
941.00,1100
940.00,1099
939.00,1105
938.00,1123
937.00,1140
936.00,1157
935.00,1166
934.00,1138
933.00,1104
932.00,1071
931.00,1041
930.00,1031
929.00,1031
928.00,1031
927.00,1031
926.00,1049
925.00,1089
924.00,1130
923.00,1172
922.00,1209
921.00,1231
920.00,1252
919.00,1272
918.00,1294
917.00,1327
916.00,1363
915.00,1399
914.00,1436
913.00,1457
912.00,1455
911.00,1454
910.00,1452
909.00,1449
908.00,1441
907.00,1433
906.00,1424
905.00,1416
904.00,1420
903.00,1428
902.00,1436
901.00,1444
900.00,1461
899.00,1492
898.00,1523
897.00,1553
896.00,1583
895.00,1602
894.00,1619
893.00,1637
892.00,1654
891.00,1671
890.00,1688
889.00,1705
888.00,1723
887.00,1736
886.00,1742
885.00,1747
884.00,1752
883.00,1755
882.00,1746
881.00,1733
880.00,1719
879.00,1706
878.00,1696
877.00,1688
876.00,1680
875.00,1672
874.00,1670
873.00,1685
872.00,1701
871.00,1718
870.00,1735
869.00,1748
868.00,1760
867.00,1772
866.00,1784
865.00,1789
864.00,1781
863.00,1774
862.00,1766
861.00,1758
860.00,1744
859.00,1729
858.00,1714
857.00,1700
856.00,1707
855.00,1730
854.00,1754
853.00,1778
852.00,1801
851.00,1817
850.00,1832
849.00,1847
848.00,1862
847.00,1869
846.00,1872
845.00,1875
844.00,1878
843.00,1876
842.00,1862
841.00,1848
840.00,1835
839.00,1824
838.00,1840
837.00,1864
836.00,1887
835.00,1910
834.00,1934
833.00,1958
832.00,1983
831.00,2008
830.00,2032
829.00,2054
828.00,2075
827.00,2096
826.00,2117
825.00,2132
824.00,2145
823.00,2157
822.00,2169
821.00,2179
820.00,2178
819.00,2176
818.00,2174
817.00,2172
816.00,2187
815.00,2211
814.00,2234
813.00,2257
812.00,2276
811.00,2287
810.00,2298
809.00,2309
808.00,2320
807.00,2340
806.00,2363
805.00,2386
804.00,2409
803.00,2433
802.00,2457
801.00,2481
800.00,2505
799.00,2527
798.00,2523
797.00,2513
796.00,2502
795.00,2491
794.00,2488
793.00,2496
792.00,2505
791.00,2513
790.00,2521
789.00,2521
788.00,2520
787.00,2518
786.00,2517
785.00,2509
784.00,2493
783.00,2477
782.00,2461
781.00,2447
780.00,2449
779.00,2455
778.00,2460
777.00,2466
776.00,2472
775.00,2478
774.00,2484
773.00,2491
772.00,2498
771.00,2510
770.00,2523
769.00,2537
768.00,2550
767.00,2559
766.00,2563
765.00,2567
764.00,2571
763.00,2577
762.00,2593
761.00,2611
760.00,2630
759.00,2647
758.00,2659
757.00,2663
756.00,2667
755.00,2671
754.00,2675
753.00,2686
752.00,2698
751.00,2710
750.00,2722
749.00,2744
748.00,2782
747.00,2818
746.00,2854
745.00,2890
744.00,2910
743.00,2925
742.00,2941
741.00,2956
740.00,2969
739.00,2977
738.00,2986
737.00,2994
736.00,3002
735.00,3020
734.00,3040
733.00,3060
732.00,3081
731.00,3097
730.00,3106
729.00,3115
728.00,3124
727.00,3133
726.00,3151
725.00,3174
724.00,3197
723.00,3218
722.00,3236
721.00,3239
720.00,3241
719.00,3243
718.00,3244
717.00,3240
716.00,3233
715.00,3226
714.00,3218
713.00,3214
712.00,3225
711.00,3237
710.00,3250
709.00,3262
708.00,3274
707.00,3283
706.00,3292
705.00,3301
704.00,3311
703.00,3324
702.00,3338
701.00,3352
700.00,3365
699.00,3373
698.00,3369
697.00,3365
696.00,3361
695.00,3358
694.00,3358
693.00,3361
692.00,3363
691.00,3366
690.00,3369
689.00,3377
688.00,3386
687.00,3395
686.00,3403
685.00,3410
684.00,3415
683.00,3421
682.00,3426
681.00,3432
680.00,3440
679.00,3448
678.00,3456
677.00,3464
676.00,3475
675.00,3489
674.00,3503
673.00,3517
672.00,3531
671.00,3538
670.00,3542
669.00,3546
668.00,3550
667.00,3558
666.00,3581
665.00,3606
664.00,3632
663.00,3656
662.00,3678
661.00,3700
660.00,3720
659.00,3740
658.00,3762
657.00,3790
656.00,3820
655.00,3851
654.00,3882
653.00,3906
652.00,3914
651.00,3922
650.00,3930
649.00,3938
648.00,3938
647.00,3933
646.00,3928
645.00,3922
644.00,3919
643.00,3929
642.00,3941
641.00,3953
640.00,3965
639.00,3976
638.00,3985
637.00,3994
636.00,4004
635.00,4013
634.00,4023
633.00,4034
632.00,4045
631.00,4055
630.00,4065
629.00,4073
628.00,4081
627.00,4088
626.00,4096
625.00,4102
624.00,4104
623.00,4107
622.00,4110
621.00,4113
620.00,4122
619.00,4135
618.00,4148
617.00,4162
616.00,4172
615.00,4164
614.00,4155
613.00,4146
612.00,4136
611.00,4129
610.00,4128
609.00,4126
608.00,4124
607.00,4123
606.00,4133
605.00,4149
604.00,4165
603.00,4181
602.00,4196
601.00,4204
600.00,4210
599.00,4217
598.00,4223
597.00,4229
596.00,4234
595.00,4238
594.00,4243
593.00,4248
592.00,4257
591.00,4268
590.00,4279
589.00,4290
588.00,4301
587.00,4314
586.00,4328
585.00,4341
584.00,4354
583.00,4368
582.00,4382
581.00,4396
580.00,4412
579.00,4426
578.00,4443
577.00,4463
576.00,4483
575.00,4503
574.00,4523
573.00,4536
572.00,4547
571.00,4557
570.00,4568
569.00,4578
568.00,4585
567.00,4591
566.00,4598
565.00,4604
564.00,4615
563.00,4634
562.00,4653
561.00,4672
560.00,4691
559.00,4703
558.00,4711
557.00,4718
556.00,4725
555.00,4733
554.00,4745
553.00,4760
552.00,4774
551.00,4788
550.00,4799
549.00,4794
548.00,4788
547.00,4781
546.00,4775
545.00,4776
544.00,4791
543.00,4805
542.00,4819
541.00,4834
540.00,4849
539.00,4864
538.00,4880
537.00,4895
536.00,4909
535.00,4909
534.00,4905
533.00,4901
532.00,4897
531.00,4894
530.00,4893
529.00,4893
528.00,4893
527.00,4893
526.00,4895
525.00,4902
524.00,4908
523.00,4915
522.00,4922
521.00,4915
520.00,4896
519.00,4877
518.00,4858
517.00,4840
516.00,4832
515.00,4828
514.00,4824
513.00,4820
512.00,4814
511.00,4796
510.00,4777
509.00,4757
508.00,4737
507.00,4721
506.00,4719
505.00,4717
504.00,4715
503.00,4713
502.00,4709
501.00,4700
500.00,4690
499.00,4681
498.00,4671
497.00,4653
496.00,4629
495.00,4604
494.00,4580
493.00,4556
492.00,4547
491.00,4544
490.00,4541
489.00,4538
488.00,4533
487.00,4517
486.00,4498
485.00,4479
484.00,4459
483.00,4445
482.00,4447
481.00,4452
480.00,4456
479.00,4460
478.00,4470
477.00,4492
476.00,4512
475.00,4532
474.00,4554
473.00,4564
472.00,4561
471.00,4559
470.00,4556
469.00,4553
468.00,4558
467.00,4569
466.00,4579
465.00,4588
464.00,4599
463.00,4608
462.00,4616
461.00,4625
460.00,4634
459.00,4643
458.00,4652
457.00,4661
456.00,4671
455.00,4681
454.00,4688
453.00,4689
452.00,4689
451.00,4689
450.00,4689
449.00,4691
448.00,4700
447.00,4709
446.00,4717
445.00,4725
444.00,4735
443.00,4749
442.00,4764
441.00,4777
440.00,4790
439.00,4799
438.00,4805
437.00,4809
436.00,4814
435.00,4818
434.00,4827
433.00,4837
432.00,4847
431.00,4856
430.00,4865
429.00,4864
428.00,4860
427.00,4855
426.00,4850
425.00,4845
424.00,4847
423.00,4851
422.00,4854
421.00,4857
420.00,4860
419.00,4869
418.00,4878
417.00,4887
416.00,4895
415.00,4902
414.00,4903
413.00,4904
412.00,4905
411.00,4905
410.00,4906
409.00,4909
408.00,4912
407.00,4915
406.00,4918
405.00,4923
404.00,4929
403.00,4934
402.00,4939
401.00,4944
400.00,4946
399.00,4942
398.00,4938
397.00,4933
396.00,4928
395.00,4928
394.00,4935
393.00,4942
392.00,4949
391.00,4956
390.00,4955
389.00,4947
388.00,4939
387.00,4930
386.00,4922
385.00,4916
384.00,4911
383.00,4906
382.00,4900
381.00,4896
380.00,4882
379.00,4863
378.00,4845
377.00,4826
376.00,4808
375.00,4796
374.00,4787
373.00,4778
372.00,4769
371.00,4760
370.00,4741
369.00,4720
368.00,4698
367.00,4676
366.00,4655
365.00,4649
364.00,4646
363.00,4643
362.00,4641
361.00,4638
360.00,4631
359.00,4622
358.00,4614
357.00,4606
356.00,4598
355.00,4595
354.00,4593
353.00,4591
352.00,4589
351.00,4586
350.00,4581
349.00,4575
348.00,4569
347.00,4563
346.00,4558
345.00,4556
344.00,4554
343.00,4551
342.00,4548
341.00,4548
340.00,4558
339.00,4570
338.00,4582
337.00,4594
336.00,4605
335.00,4616
334.00,4628
333.00,4639
332.00,4650
331.00,4657
330.00,4649
329.00,4639
328.00,4628
327.00,4617
326.00,4604
325.00,4575
324.00,4543
323.00,4511
322.00,4479
321.00,4449
320.00,4433
319.00,4419
318.00,4405
317.00,4391
316.00,4377
315.00,4361
314.00,4344
313.00,4327
312.00,4311
311.00,4295
310.00,4285
309.00,4276
308.00,4266
307.00,4257
306.00,4247
305.00,4236
304.00,4223
303.00,4212
302.00,4201
301.00,4189
300.00,4176
299.00,4163
298.00,4149
297.00,4136
296.00,4122
295.00,4111
294.00,4099
293.00,4088
292.00,4075
291.00,4062
290.00,4049
289.00,4036
288.00,4023
287.00,4010
286.00,3997
285.00,3984
284.00,3971
283.00,3958
282.00,3944
281.00,3929
280.00,3898
279.00,3863
278.00,3827
277.00,3791
276.00,3755
275.00,3733
274.00,3715
273.00,3696
272.00,3678
271.00,3660
270.00,3635
269.00,3609
268.00,3582
267.00,3554
266.00,3527
265.00,3505
264.00,3488
263.00,3470
262.00,3451
261.00,3433
260.00,3416
259.00,3401
258.00,3387
257.00,3372
256.00,3358
255.00,3345
254.00,3331
253.00,3317
252.00,3304
251.00,3291
250.00,3275
249.00,3256
248.00,3236
247.00,3217
246.00,3198
245.00,3181
244.00,3168
243.00,3153
242.00,3138
241.00,3124
240.00,3109
239.00,3094
238.00,3077
237.00,3061
236.00,3045
235.00,3027
234.00,3004
233.00,2979
232.00,2955
231.00,2931
230.00,2909
229.00,2894
228.00,2880
227.00,2867
226.00,2854
225.00,2840
224.00,2821
223.00,2801
222.00,2782
221.00,2763
220.00,2743
219.00,2734
218.00,2731
217.00,2727
216.00,2721
215.00,2714
214.00,2694
213.00,2667
212.00,2639
211.00,2611
210.00,2583
209.00,2566
208.00,2553
207.00,2540
206.00,2529
205.00,2516
204.00,2503
203.00,2491
202.00,2478
201.00,2464
200.00,2450
199.00,2432
198.00,2405
197.00,2376
196.00,2347
195.00,2319
194.00,2292
193.00,2272
192.00,2254
191.00,2235
190.00,2215
189.00,2197
188.00,2179
187.00,2160
186.00,2141
185.00,2123
184.00,2101
183.00,2055
182.00,2003
181.00,1951
180.00,1899
179.00,1847
178.00,1811
177.00,1781
176.00,1751
175.00,1721
174.00,1690
173.00,1647
172.00,1593
171.00,1539
170.00,1485
169.00,1430
168.00,1390
167.00,1374
166.00,1355
165.00,1337
164.00,1320
163.00,1295
162.00,1253
161.00,1211
160.00,1168
159.00,1125
158.00,1082
157.00,1046
156.00,1012
155.00,976
154.00,940
153.00,905
152.00,868
151.00,830
150.00,792
149.00,753
148.00,716
147.00,673
146.00,627
145.00,581
144.00,535
143.00,490
142.00,446
141.00,406
140.00,366
139.00,325
138.00,286
137.00,246
136.00,207
135.00,169
134.00,131
133.00,93
132.00,54
131.00,16
130.00,-23
129.00,-62
128.00,-100
127.00,-139
126.00,-175
125.00,-210
124.00,-246
123.00,-282
122.00,-317
121.00,-339
120.00,-350
119.00,-358
118.00,-369
117.00,-380
116.00,-406
115.00,-457
114.00,-509
113.00,-562
112.00,-614
111.00,-671
110.00,-747
109.00,-825
108.00,-903
107.00,-981
106.00,-1058
105.00,-1124
104.00,-1188
103.00,-1251
102.00,-1315
101.00,-1392
100.00,-1469
