Created as New Dataset,
Raman Shift / cm-1,INT
3200.00,1038
3199.00,983
3198.00,977
3197.00,986
3196.00,1002
3195.00,999
3194.00,986
3193.00,962
3192.00,920
3191.00,855
3190.00,822
3189.00,811
3188.00,829
3187.00,839
3186.00,812
3185.00,770
3184.00,718
3183.00,681
3182.00,659
3181.00,691
3180.00,683
3179.00,562
3178.00,500
3177.00,499
3176.00,638
3175.00,764
3174.00,631
3173.00,526
3172.00,553
3171.00,575
3170.00,586
3169.00,549
3168.00,503
3167.00,485
3166.00,483
3165.00,505
3164.00,523
3163.00,539
3162.00,623
3161.00,711
3160.00,664
3159.00,608
3158.00,585
3157.00,551
3156.00,501
3155.00,476
3154.00,454
3153.00,330
3152.00,208
3151.00,184
3150.00,151
3149.00,87
3148.00,177
3147.00,379
3146.00,421
3145.00,471
3144.00,916
3143.00,1199
3142.00,858
3141.00,625
3140.00,604
3139.00,398
3138.00,109
3137.00,208
3136.00,418
3135.00,587
3134.00,714
3133.00,737
3132.00,738
3131.00,714
3130.00,699
3129.00,688
3128.00,639
3127.00,583
3126.00,558
3125.00,539
3124.00,523
3123.00,538
3122.00,605
3121.00,602
3120.00,539
3119.00,511
3118.00,500
3117.00,511
3116.00,516
3115.00,463
3114.00,415
3113.00,396
3112.00,387
3111.00,391
3110.00,444
3109.00,532
3108.00,497
3107.00,418
3106.00,364
3105.00,321
3104.00,304
3103.00,290
3102.00,279
3101.00,259
3100.00,226
3099.00,239
3098.00,293
3097.00,317
3096.00,327
3095.00,341
3094.00,362
3093.00,410
3092.00,452
3091.00,448
3090.00,419
3089.00,344
3088.00,285
3087.00,251
3086.00,230
3085.00,221
3084.00,214
3083.00,208
3082.00,198
3081.00,194
3080.00,249
3079.00,308
3078.00,320
3077.00,323
3076.00,321
3075.00,316
3074.00,305
3073.00,327
3072.00,396
3071.00,403
3070.00,355
3069.00,351
3068.00,372
3067.00,355
3066.00,325
3065.00,310
3064.00,295
3063.00,254
3062.00,216
3061.00,208
3060.00,203
3059.00,192
3058.00,188
3057.00,200
3056.00,209
3055.00,209
3054.00,213
3053.00,221
3052.00,240
3051.00,269
3050.00,280
3049.00,281
3048.00,273
3047.00,262
3046.00,251
3045.00,240
3044.00,219
3043.00,199
3042.00,200
3041.00,203
3040.00,194
3039.00,194
3038.00,239
3037.00,291
3036.00,346
3035.00,383
3034.00,375
3033.00,350
3032.00,297
3031.00,277
3030.00,311
3029.00,341
3028.00,364
3027.00,345
3026.00,285
3025.00,275
3024.00,309
3023.00,425
3022.00,587
3021.00,555
3020.00,418
3019.00,344
3018.00,307
3017.00,371
3016.00,462
3015.00,370
3014.00,235
3013.00,341
3012.00,492
3011.00,317
3010.00,96
3009.00,152
3008.00,258
3007.00,268
3006.00,257
3005.00,234
3004.00,200
3003.00,107
3002.00,24
3001.00,41
3000.00,64
2999.00,59
2998.00,46
2997.00,13
2996.00,-13
2995.00,-0
2994.00,16
2993.00,32
2992.00,47
2991.00,59
2990.00,74
2989.00,99
2988.00,118
2987.00,112
2986.00,105
2985.00,100
2984.00,97
2983.00,100
2982.00,102
2981.00,98
2980.00,93
2979.00,85
2978.00,80
2977.00,83
2976.00,90
2975.00,107
2974.00,120
2973.00,114
2972.00,105
2971.00,95
2970.00,83
2969.00,63
2968.00,44
2967.00,35
2966.00,28
2965.00,31
2964.00,34
2963.00,27
2962.00,19
2961.00,17
2960.00,24
2959.00,81
2958.00,143
2957.00,153
2956.00,161
2955.00,228
2954.00,296
2953.00,237
2952.00,156
2951.00,167
2950.00,200
2949.00,165
2948.00,107
2947.00,84
2946.00,74
2945.00,65
2944.00,58
2943.00,102
2942.00,175
2941.00,186
2940.00,158
2939.00,137
2938.00,123
2937.00,118
2936.00,121
2935.00,95
2934.00,36
2933.00,-3
2932.00,-12
2931.00,-8
2930.00,19
2929.00,48
2928.00,75
2927.00,100
2926.00,119
2925.00,139
2924.00,163
2923.00,182
2922.00,174
2921.00,161
2920.00,149
2919.00,138
2918.00,130
2917.00,121
2916.00,101
2915.00,77
2914.00,24
2913.00,-39
2912.00,-66
2911.00,-72
2910.00,-60
2909.00,-34
2908.00,-34
2907.00,-65
2906.00,-63
2905.00,-8
2904.00,51
2903.00,115
2902.00,162
2901.00,156
2900.00,146
2899.00,134
2898.00,119
2897.00,91
2896.00,65
2895.00,96
2894.00,140
2893.00,150
2892.00,146
2891.00,113
2890.00,61
2889.00,58
2888.00,99
2887.00,111
2886.00,82
2885.00,61
2884.00,57
2883.00,55
2882.00,61
2881.00,69
2880.00,89
2879.00,102
2878.00,46
2877.00,-22
2876.00,2
2875.00,59
2874.00,102
2873.00,138
2872.00,132
2871.00,84
2870.00,25
2869.00,-55
2868.00,-94
2867.00,-32
2866.00,32
2865.00,87
2864.00,136
2863.00,146
2862.00,146
2861.00,140
2860.00,131
2859.00,132
2858.00,139
2857.00,154
2856.00,175
2855.00,173
2854.00,124
2853.00,84
2852.00,79
2851.00,75
2850.00,62
2849.00,48
2848.00,35
2847.00,22
2846.00,19
2845.00,22
2844.00,27
2843.00,33
2842.00,33
2841.00,20
2840.00,7
2839.00,-2
2838.00,-11
2837.00,-22
2836.00,-34
2835.00,-47
2834.00,-60
2833.00,-69
2832.00,-75
2831.00,-65
2830.00,-29
2829.00,-1
2828.00,4
2827.00,4
2826.00,-8
2825.00,-22
2824.00,-33
2823.00,-42
2822.00,-48
2821.00,-51
2820.00,-60
2819.00,-75
2818.00,-88
2817.00,-93
2816.00,-97
2815.00,-95
2814.00,-93
2813.00,-87
2812.00,-80
2811.00,-80
2810.00,-84
2809.00,-87
2808.00,-88
2807.00,-83
2806.00,-59
2805.00,-33
2804.00,-5
2803.00,24
2802.00,52
2801.00,81
2800.00,93
2799.00,91
2798.00,80
2797.00,51
2796.00,27
2795.00,31
2794.00,37
2793.00,26
2792.00,9
2791.00,-2
2790.00,-10
2789.00,-20
2788.00,-34
2787.00,-46
2786.00,-46
2785.00,-44
2784.00,-29
2783.00,-10
2782.00,-8
2781.00,-17
2780.00,-26
2779.00,-33
2778.00,-38
2777.00,-33
2776.00,-27
2775.00,-33
2774.00,-43
2773.00,-63
2772.00,-89
2771.00,-99
2770.00,-84
2769.00,-72
2768.00,-78
2767.00,-83
2766.00,-59
2765.00,-26
2764.00,-15
2763.00,-21
2762.00,-29
2761.00,-40
2760.00,-49
2759.00,-45
2758.00,-38
2757.00,-42
2756.00,-50
2755.00,-59
2754.00,-69
2753.00,-80
2752.00,-99
2751.00,-116
2750.00,-116
2749.00,-112
2748.00,-100
2747.00,-84
2746.00,-66
2745.00,-45
2744.00,-27
2743.00,-24
2742.00,-23
2741.00,-26
2740.00,-30
2739.00,-16
2738.00,20
2737.00,50
2736.00,55
2735.00,58
2734.00,64
2733.00,72
2732.00,97
2731.00,138
2730.00,166
2729.00,161
2728.00,154
2727.00,146
2726.00,138
2725.00,130
2724.00,124
2723.00,101
2722.00,39
2721.00,-20
2720.00,-42
2719.00,-56
2718.00,-67
2717.00,-76
2716.00,-85
2715.00,-94
2714.00,-104
2713.00,-114
2712.00,-125
2711.00,-79
2710.00,3
2709.00,57
2708.00,53
2707.00,47
2706.00,40
2705.00,34
2704.00,36
2703.00,43
2702.00,48
2701.00,47
2700.00,45
2699.00,35
2698.00,25
2697.00,15
2696.00,4
2695.00,-4
2694.00,-6
2693.00,-8
2692.00,-19
2691.00,-32
2690.00,-41
2689.00,-45
2688.00,-54
2687.00,-78
2686.00,-102
2685.00,-106
2684.00,-103
2683.00,-104
2682.00,-110
2681.00,-119
2680.00,-135
2679.00,-150
2678.00,-100
2677.00,-18
2676.00,31
2675.00,21
2674.00,11
2673.00,3
2672.00,-4
2671.00,-9
2670.00,-13
2669.00,-16
2668.00,-18
2667.00,-20
2666.00,-10
2665.00,4
2664.00,10
2663.00,6
2662.00,6
2661.00,26
2660.00,49
2659.00,96
2658.00,158
2657.00,185
2656.00,119
2655.00,53
2654.00,-17
2653.00,-90
2652.00,-112
2651.00,-72
2650.00,-40
2649.00,-52
2648.00,-71
2647.00,-82
2646.00,-88
2645.00,-88
2644.00,-74
2643.00,-59
2642.00,-41
2641.00,-22
2640.00,-10
2639.00,-6
2638.00,-1
2637.00,14
2636.00,30
2635.00,34
2634.00,29
2633.00,29
2632.00,52
2631.00,75
2630.00,87
2629.00,93
2628.00,81
2627.00,27
2626.00,-22
2625.00,-1
2624.00,40
2623.00,61
2622.00,55
2621.00,51
2620.00,54
2619.00,60
2618.00,41
2617.00,1
2616.00,-26
2615.00,-3
2614.00,26
2613.00,29
2612.00,18
2611.00,9
2610.00,2
2609.00,-2
2608.00,15
2607.00,42
2606.00,59
2605.00,55
2604.00,50
2603.00,52
2602.00,56
2601.00,55
2600.00,46
2599.00,37
2598.00,32
2597.00,27
2596.00,26
2595.00,30
2594.00,36
2593.00,57
2592.00,81
2591.00,90
2590.00,82
2589.00,74
2588.00,69
2587.00,64
2586.00,54
2585.00,38
2584.00,22
2583.00,5
2582.00,-11
2581.00,-16
2580.00,-11
2579.00,-8
2578.00,-10
2577.00,-14
2576.00,-20
2575.00,-28
2574.00,-28
2573.00,8
2572.00,47
2571.00,66
2570.00,71
2569.00,72
2568.00,58
2567.00,42
2566.00,35
2565.00,32
2564.00,29
2563.00,19
2562.00,9
2561.00,-1
2560.00,-12
2559.00,-23
2558.00,-36
2557.00,-49
2556.00,-54
2555.00,-52
2554.00,-47
2553.00,-29
2552.00,-10
2551.00,23
2550.00,71
2549.00,111
2548.00,110
2547.00,103
2546.00,104
2545.00,112
2544.00,119
2543.00,115
2542.00,108
2541.00,102
2540.00,97
2539.00,92
2538.00,87
2537.00,82
2536.00,78
2535.00,75
2534.00,72
2533.00,69
2532.00,68
2531.00,65
2530.00,59
2529.00,54
2528.00,60
2527.00,72
2526.00,80
2525.00,79
2524.00,77
2523.00,74
2522.00,69
2521.00,63
2520.00,52
2519.00,41
2518.00,58
2517.00,101
2516.00,135
2515.00,103
2514.00,55
2513.00,39
2512.00,67
2511.00,94
2510.00,91
2509.00,80
2508.00,70
2507.00,65
2506.00,59
2505.00,50
2504.00,40
2503.00,34
2502.00,45
2501.00,58
2500.00,68
2499.00,75
2498.00,80
2497.00,76
2496.00,69
2495.00,68
2494.00,74
2493.00,80
2492.00,78
2491.00,72
2490.00,67
2489.00,63
2488.00,58
2487.00,52
2486.00,46
2485.00,41
2484.00,50
2483.00,60
2482.00,61
2481.00,48
2480.00,37
2479.00,42
2478.00,52
2477.00,62
2476.00,68
2475.00,75
2474.00,80
2473.00,85
2472.00,90
2471.00,100
2470.00,111
2469.00,122
2468.00,135
2467.00,147
2466.00,149
2465.00,146
2464.00,142
2463.00,136
2462.00,129
2461.00,122
2460.00,115
2459.00,108
2458.00,107
2457.00,108
2456.00,105
2455.00,96
2454.00,87
2453.00,94
2452.00,113
2451.00,129
2450.00,126
2449.00,119
2448.00,114
2447.00,109
2446.00,105
2445.00,100
2444.00,96
2443.00,91
2442.00,85
2441.00,80
2440.00,77
2439.00,79
2438.00,80
2437.00,82
2436.00,83
2435.00,84
2434.00,78
2433.00,71
2432.00,65
2431.00,57
2430.00,51
2429.00,56
2428.00,66
2427.00,73
2426.00,68
2425.00,61
2424.00,55
2423.00,51
2422.00,46
2421.00,39
2420.00,31
2419.00,28
2418.00,41
2417.00,56
2416.00,63
2415.00,58
2414.00,53
2413.00,58
2412.00,68
2411.00,73
2410.00,58
2409.00,42
2408.00,43
2407.00,73
2406.00,102
2405.00,130
2404.00,158
2403.00,181
2402.00,182
2401.00,179
2400.00,174
2399.00,168
2398.00,161
2397.00,159
2396.00,162
2395.00,164
2394.00,162
2393.00,160
2392.00,156
2391.00,148
2390.00,140
2389.00,140
2388.00,148
2387.00,156
2386.00,156
2385.00,152
2384.00,147
2383.00,136
2382.00,125
2381.00,113
2380.00,101
2379.00,89
2378.00,89
2377.00,97
2376.00,104
2375.00,112
2374.00,120
2373.00,127
2372.00,130
2371.00,133
2370.00,131
2369.00,123
2368.00,116
2367.00,107
2366.00,98
2365.00,89
2364.00,85
2363.00,82
2362.00,82
2361.00,91
2360.00,101
2359.00,112
2358.00,127
2357.00,141
2356.00,144
2355.00,143
2354.00,142
2353.00,133
2352.00,123
2351.00,112
2350.00,99
2349.00,86
2348.00,80
2347.00,80
2346.00,80
2345.00,96
2344.00,118
2343.00,135
2342.00,130
2341.00,121
2340.00,115
2339.00,117
2338.00,120
2337.00,118
2336.00,110
2335.00,103
2334.00,96
2333.00,88
2332.00,82
2331.00,90
2330.00,99
2329.00,106
2328.00,101
2327.00,96
2326.00,90
2325.00,85
2324.00,80
2323.00,75
2322.00,70
2321.00,64
2320.00,59
2319.00,54
2318.00,52
2317.00,69
2316.00,88
2315.00,101
2314.00,102
2313.00,102
2312.00,100
2311.00,97
2310.00,95
2309.00,122
2308.00,165
2307.00,204
2306.00,207
2305.00,201
2304.00,195
2303.00,191
2302.00,188
2301.00,184
2300.00,180
2299.00,177
2298.00,175
2297.00,176
2296.00,177
2295.00,174
2294.00,168
2293.00,163
2292.00,159
2291.00,155
2290.00,152
2289.00,151
2288.00,150
2287.00,152
2286.00,162
2285.00,173
2284.00,180
2283.00,181
2282.00,182
2281.00,187
2280.00,195
2279.00,203
2278.00,189
2277.00,166
2276.00,145
2275.00,150
2274.00,163
2273.00,173
2272.00,172
2271.00,169
2270.00,166
2269.00,159
2268.00,153
2267.00,152
2266.00,159
2265.00,166
2264.00,173
2263.00,180
2262.00,187
2261.00,200
2260.00,217
2259.00,233
2258.00,227
2257.00,213
2256.00,200
2255.00,191
2254.00,183
2253.00,175
2252.00,173
2251.00,171
2250.00,166
2249.00,154
2248.00,141
2247.00,133
2246.00,132
2245.00,132
2244.00,131
2243.00,128
2242.00,126
2241.00,123
2240.00,119
2239.00,116
2238.00,125
2237.00,137
2236.00,150
2235.00,155
2234.00,159
2233.00,161
2232.00,155
2231.00,147
2230.00,139
2229.00,132
2228.00,126
2227.00,124
2226.00,136
2225.00,149
2224.00,154
2223.00,139
2222.00,123
2221.00,117
2220.00,121
2219.00,125
2218.00,146
2217.00,183
2216.00,219
2215.00,237
2214.00,242
2213.00,247
2212.00,243
2211.00,235
2210.00,227
2209.00,225
2208.00,225
2207.00,225
2206.00,219
2205.00,212
2204.00,205
2203.00,201
2202.00,197
2201.00,196
2200.00,205
2199.00,216
2198.00,224
2197.00,220
2196.00,216
2195.00,215
2194.00,222
2193.00,231
2192.00,240
2191.00,250
2190.00,261
2189.00,267
2188.00,264
2187.00,260
2186.00,255
2185.00,248
2184.00,240
2183.00,236
2182.00,236
2181.00,236
2180.00,234
2179.00,230
2178.00,226
2177.00,221
2176.00,215
2175.00,210
2174.00,211
2173.00,215
2172.00,220
2171.00,224
2170.00,228
2169.00,233
2168.00,247
2167.00,264
2166.00,281
2165.00,281
2164.00,276
2163.00,269
2162.00,259
2161.00,246
2160.00,234
2159.00,222
2158.00,210
2157.00,202
2156.00,228
2155.00,265
2154.00,298
2153.00,288
2152.00,268
2151.00,251
2150.00,249
2149.00,251
2148.00,254
2147.00,262
2146.00,271
2145.00,280
2144.00,289
2143.00,298
2142.00,306
2141.00,306
2140.00,303
2139.00,301
2138.00,296
2137.00,291
2136.00,286
2135.00,280
2134.00,275
2133.00,271
2132.00,284
2131.00,298
2130.00,314
2129.00,337
2128.00,361
2127.00,379
2126.00,368
2125.00,353
2124.00,338
2123.00,324
2122.00,312
2121.00,302
2120.00,309
2119.00,318
2118.00,325
2117.00,316
2116.00,304
2115.00,294
2114.00,291
2113.00,289
2112.00,287
2111.00,286
2110.00,284
2109.00,282
2108.00,271
2107.00,259
2106.00,251
2105.00,282
2104.00,322
2103.00,359
2102.00,365
2101.00,362
2100.00,359
2099.00,347
2098.00,333
2097.00,319
2096.00,315
2095.00,313
2094.00,312
2093.00,311
2092.00,311
2091.00,311
2090.00,316
2089.00,324
2088.00,332
2087.00,355
2086.00,387
2085.00,417
2084.00,422
2083.00,410
2082.00,399
2081.00,400
2080.00,412
2079.00,424
2078.00,421
2077.00,403
2076.00,385
2075.00,367
2074.00,346
2073.00,325
2072.00,320
2071.00,340
2070.00,360
2069.00,371
2068.00,366
2067.00,360
2066.00,359
2065.00,369
2064.00,379
2063.00,383
2062.00,368
2061.00,351
2060.00,334
2059.00,316
2058.00,297
2057.00,283
2056.00,288
2055.00,297
2054.00,307
2053.00,334
2052.00,363
2051.00,391
2050.00,397
2049.00,396
2048.00,395
2047.00,386
2046.00,372
2045.00,359
2044.00,355
2043.00,355
2042.00,355
2041.00,373
2040.00,403
2039.00,434
2038.00,450
2037.00,450
2036.00,449
2035.00,444
2034.00,431
2033.00,417
2032.00,403
2031.00,386
2030.00,369
2029.00,363
2028.00,395
2027.00,428
2026.00,455
2025.00,440
2024.00,420
2023.00,399
2022.00,379
2021.00,359
2020.00,339
2019.00,325
2018.00,312
2017.00,301
2016.00,295
2015.00,293
2014.00,291
2013.00,289
2012.00,287
2011.00,284
2010.00,287
2009.00,296
2008.00,306
2007.00,320
2006.00,350
2005.00,379
2004.00,401
2003.00,398
2002.00,393
2001.00,387
2000.00,374
1999.00,360
1998.00,347
1997.00,352
1996.00,363
1995.00,374
1994.00,393
1993.00,418
1992.00,441
1991.00,445
1990.00,431
1989.00,419
1988.00,407
1987.00,399
1986.00,391
1985.00,381
1984.00,366
1983.00,351
1982.00,340
1981.00,343
1980.00,349
1979.00,356
1978.00,365
1977.00,376
1976.00,387
1975.00,386
1974.00,379
1973.00,373
1972.00,366
1971.00,358
1970.00,350
1969.00,346
1968.00,347
1967.00,348
1966.00,355
1965.00,379
1964.00,405
1963.00,427
1962.00,425
1961.00,421
1960.00,416
1959.00,406
1958.00,396
1957.00,386
1956.00,381
1955.00,379
1954.00,377
1953.00,378
1952.00,383
1951.00,388
1950.00,394
1949.00,402
1948.00,410
1947.00,416
1946.00,417
1945.00,418
1944.00,418
1943.00,424
1942.00,430
1941.00,436
1940.00,444
1939.00,454
1938.00,463
1937.00,473
1936.00,484
1935.00,493
1934.00,497
1933.00,485
1932.00,471
1931.00,457
1930.00,442
1929.00,427
1928.00,411
1927.00,399
1926.00,387
1925.00,375
1924.00,363
1923.00,349
1922.00,336
1921.00,339
1920.00,381
1919.00,424
1918.00,461
1917.00,467
1916.00,469
1915.00,469
1914.00,457
1913.00,442
1912.00,427
1911.00,416
1910.00,409
1909.00,401
1908.00,393
1907.00,382
1906.00,371
1905.00,364
1904.00,375
1903.00,388
1902.00,401
1901.00,415
1900.00,430
1899.00,446
1898.00,443
1897.00,426
1896.00,409
1895.00,400
1894.00,408
1893.00,416
1892.00,423
1891.00,421
1890.00,417
1889.00,413
1888.00,405
1887.00,394
1886.00,384
1885.00,377
1884.00,372
1883.00,367
1882.00,366
1881.00,372
1880.00,379
1879.00,384
1878.00,375
1877.00,364
1876.00,353
1875.00,347
1874.00,343
1873.00,340
1872.00,341
1871.00,349
1870.00,357
1869.00,365
1868.00,374
1867.00,384
1866.00,392
1865.00,384
1864.00,371
1863.00,358
1862.00,353
1861.00,355
1860.00,357
1859.00,362
1858.00,373
1857.00,384
1856.00,396
1855.00,407
1854.00,419
1853.00,430
1852.00,430
1851.00,421
1850.00,413
1849.00,412
1848.00,429
1847.00,446
1846.00,460
1845.00,455
1844.00,446
1843.00,437
1842.00,430
1841.00,424
1840.00,418
1839.00,410
1838.00,400
1837.00,390
1836.00,380
1835.00,378
1834.00,376
1833.00,375
1832.00,388
1831.00,409
1830.00,430
1829.00,445
1828.00,450
1827.00,455
1826.00,458
1825.00,451
1824.00,443
1823.00,434
1822.00,425
1821.00,414
1820.00,404
1819.00,395
1818.00,390
1817.00,385
1816.00,381
1815.00,382
1814.00,384
1813.00,386
1812.00,387
1811.00,388
1810.00,388
1809.00,388
1808.00,385
1807.00,382
1806.00,379
1805.00,372
1804.00,363
1803.00,355
1802.00,352
1801.00,351
1800.00,351
1799.00,350
1798.00,346
1797.00,343
1796.00,339
1795.00,339
1794.00,340
1793.00,341
1792.00,339
1791.00,333
1790.00,327
1789.00,322
1788.00,319
1787.00,317
1786.00,315
1785.00,321
1784.00,330
1783.00,339
1782.00,342
1781.00,334
1780.00,324
1779.00,316
1778.00,315
1777.00,315
1776.00,315
1775.00,313
1774.00,309
1773.00,306
1772.00,302
1771.00,298
1770.00,295
1769.00,291
1768.00,289
1767.00,289
1766.00,289
1765.00,287
1764.00,280
1763.00,274
1762.00,269
1761.00,280
1760.00,295
1759.00,309
1758.00,319
1757.00,324
1756.00,329
1755.00,333
1754.00,335
1753.00,336
1752.00,337
1751.00,339
1750.00,341
1749.00,343
1748.00,353
1747.00,379
1746.00,407
1745.00,432
1744.00,436
1743.00,434
1742.00,433
1741.00,433
1740.00,438
1739.00,443
1738.00,446
1737.00,436
1736.00,425
1735.00,413
1734.00,405
1733.00,400
1732.00,395
1731.00,390
1730.00,384
1729.00,378
1728.00,372
1727.00,366
1726.00,360
1725.00,353
1724.00,351
1723.00,360
1722.00,369
1721.00,379
1720.00,404
1719.00,435
1718.00,465
1717.00,484
1716.00,481
1715.00,477
1714.00,473
1713.00,467
1712.00,461
1711.00,455
1710.00,449
1709.00,444
1708.00,440
1707.00,437
1706.00,446
1705.00,458
1704.00,470
1703.00,471
1702.00,457
1701.00,444
1700.00,432
1699.00,431
1698.00,431
1697.00,432
1696.00,425
1695.00,411
1694.00,396
1693.00,385
1692.00,392
1691.00,402
1690.00,412
1689.00,413
1688.00,407
1687.00,400
1686.00,398
1685.00,423
1684.00,453
1683.00,482
1682.00,489
1681.00,475
1680.00,462
1679.00,455
1678.00,483
1677.00,515
1676.00,546
1675.00,557
1674.00,550
1673.00,542
1672.00,534
1671.00,518
1670.00,502
1669.00,486
1668.00,486
1667.00,501
1666.00,516
1665.00,528
1664.00,523
1663.00,515
1662.00,507
1661.00,516
1660.00,540
1659.00,565
1658.00,587
1657.00,584
1656.00,577
1655.00,570
1654.00,560
1653.00,548
1652.00,535
1651.00,525
1650.00,532
1649.00,543
1648.00,555
1647.00,564
1646.00,570
1645.00,576
1644.00,582
1643.00,590
1642.00,597
1641.00,604
1640.00,604
1639.00,587
1638.00,570
1637.00,553
1636.00,543
1635.00,536
1634.00,529
1633.00,521
1632.00,514
1631.00,506
1630.00,499
1629.00,488
1628.00,475
1627.00,462
1626.00,454
1625.00,463
1624.00,473
1623.00,483
1622.00,488
1621.00,488
1620.00,489
1619.00,489
1618.00,486
1617.00,483
1616.00,480
1615.00,473
1614.00,462
1613.00,452
1612.00,442
1611.00,446
1610.00,455
1609.00,463
1608.00,469
1607.00,469
1606.00,468
1605.00,467
1604.00,456
1603.00,439
1602.00,422
1601.00,408
1600.00,409
1599.00,411
1598.00,414
1597.00,427
1596.00,450
1595.00,472
1594.00,491
1593.00,481
1592.00,464
1591.00,448
1590.00,437
1589.00,439
1588.00,442
1587.00,445
1586.00,451
1585.00,460
1584.00,468
1583.00,474
1582.00,468
1581.00,460
1580.00,453
1579.00,451
1578.00,457
1577.00,462
1576.00,466
1575.00,467
1574.00,466
1573.00,466
1572.00,467
1571.00,468
1570.00,470
1569.00,472
1568.00,471
1567.00,469
1566.00,467
1565.00,467
1564.00,478
1563.00,489
1562.00,501
1561.00,507
1560.00,504
1559.00,502
1558.00,499
1557.00,489
1556.00,477
1555.00,465
1554.00,453
1553.00,437
1552.00,422
1551.00,407
1550.00,395
1549.00,387
1548.00,378
1547.00,370
1546.00,363
1545.00,356
1544.00,349
1543.00,349
1542.00,371
1541.00,395
1540.00,418
1539.00,427
1538.00,423
1537.00,419
1536.00,415
1535.00,410
1534.00,405
1533.00,400
1532.00,393
1531.00,382
1530.00,371
1529.00,360
1528.00,353
1527.00,350
1526.00,347
1525.00,346
1524.00,367
1523.00,394
1522.00,420
1521.00,437
1520.00,433
1519.00,428
1518.00,423
1517.00,418
1516.00,412
1515.00,407
1514.00,400
1513.00,387
1512.00,371
1511.00,356
1510.00,344
1509.00,344
1508.00,344
1507.00,344
1506.00,339
1505.00,328
1504.00,317
1503.00,309
1502.00,325
1501.00,351
1500.00,376
1499.00,395
1498.00,395
1497.00,393
1496.00,391
1495.00,383
1494.00,366
1493.00,350
1492.00,334
1491.00,321
1490.00,309
1489.00,296
1488.00,286
1487.00,286
1486.00,287
1485.00,289
1484.00,294
1483.00,305
1482.00,318
1481.00,331
1480.00,340
1479.00,346
1478.00,351
1477.00,357
1476.00,354
1475.00,348
1474.00,342
1473.00,337
1472.00,332
1471.00,326
1470.00,321
1469.00,318
1468.00,316
1467.00,314
1466.00,311
1465.00,309
1464.00,306
1463.00,303
1462.00,300
1461.00,301
1460.00,302
1459.00,302
1458.00,307
1457.00,323
1456.00,340
1455.00,356
1454.00,365
1453.00,362
1452.00,360
1451.00,358
1450.00,346
1449.00,330
1448.00,315
1447.00,301
1446.00,299
1445.00,300
1444.00,301
1443.00,300
1442.00,292
1441.00,285
1440.00,277
1439.00,270
1438.00,264
1437.00,257
1436.00,251
1435.00,246
1434.00,242
1433.00,238
1432.00,233
1431.00,230
1430.00,227
1429.00,223
1428.00,224
1427.00,238
1426.00,253
1425.00,267
1424.00,274
1423.00,264
1422.00,253
1421.00,243
1420.00,238
1419.00,236
1418.00,235
1417.00,233
1416.00,228
1415.00,220
1414.00,213
1413.00,208
1412.00,211
1411.00,217
1410.00,222
1409.00,225
1408.00,222
1407.00,218
1406.00,214
1405.00,216
1404.00,225
1403.00,234
1402.00,244
1401.00,245
1400.00,241
1399.00,237
1398.00,232
1397.00,224
1396.00,213
1395.00,203
1394.00,193
1393.00,190
1392.00,187
1391.00,185
1390.00,182
1389.00,176
1388.00,170
1387.00,164
1386.00,169
1385.00,196
1384.00,223
1383.00,251
1382.00,257
1381.00,241
1380.00,226
1379.00,211
1378.00,204
1377.00,201
1376.00,197
1375.00,194
1374.00,189
1373.00,184
1372.00,179
1371.00,174
1370.00,177
1369.00,181
1368.00,185
1367.00,185
1366.00,174
1365.00,161
1364.00,149
1363.00,139
1362.00,134
1361.00,128
1360.00,123
1359.00,114
1358.00,101
1357.00,89
1356.00,76
1355.00,87
1354.00,112
1353.00,135
1352.00,159
1351.00,166
1350.00,166
1349.00,166
1348.00,166
1347.00,166
1346.00,164
1345.00,163
1344.00,161
1343.00,151
1342.00,140
1341.00,129
1340.00,120
1339.00,113
1338.00,107
1337.00,101
1336.00,100
1335.00,112
1334.00,124
1333.00,136
1332.00,140
1331.00,132
1330.00,124
1329.00,116
1328.00,111
1327.00,110
1326.00,110
1325.00,109
1324.00,102
1323.00,93
1322.00,83
1321.00,74
1320.00,80
1319.00,91
1318.00,103
1317.00,113
1316.00,109
1315.00,100
1314.00,92
1313.00,85
1312.00,86
1311.00,91
1310.00,95
1309.00,98
1308.00,97
1307.00,96
1306.00,94
1305.00,91
1304.00,79
1303.00,66
1302.00,53
1301.00,47
1300.00,60
1299.00,73
1298.00,86
1297.00,96
1296.00,97
1295.00,98
1294.00,100
1293.00,96
1292.00,85
1291.00,73
1290.00,62
1289.00,62
1288.00,76
1287.00,89
1286.00,103
1285.00,107
1284.00,101
1283.00,95
1282.00,90
1281.00,88
1280.00,89
1279.00,89
1278.00,91
1277.00,92
1276.00,94
1275.00,96
1274.00,98
1273.00,94
1272.00,87
1271.00,80
1270.00,73
1269.00,69
1268.00,65
1267.00,62
1266.00,59
1265.00,54
1264.00,50
1263.00,45
1262.00,41
1261.00,38
1260.00,35
1259.00,32
1258.00,29
1257.00,24
1256.00,20
1255.00,15
1254.00,10
1253.00,6
1252.00,3
1251.00,-1
1250.00,-2
1249.00,12
1248.00,29
1247.00,46
1246.00,60
1245.00,61
1244.00,59
1243.00,58
1242.00,57
1241.00,66
1240.00,77
1239.00,87
1238.00,97
1237.00,102
1236.00,106
1235.00,110
1234.00,111
1233.00,102
1232.00,92
1231.00,82
1230.00,71
1229.00,62
1228.00,53
1227.00,44
1226.00,36
1225.00,34
1224.00,32
1223.00,31
1222.00,30
1221.00,30
1220.00,29
1219.00,29
1218.00,28
1217.00,26
1216.00,24
1215.00,22
1214.00,18
1213.00,7
1212.00,-5
1211.00,-17
1210.00,-28
1209.00,-30
1208.00,-32
1207.00,-34
1206.00,-35
1205.00,-37
1204.00,-39
1203.00,-41
1202.00,-41
1201.00,-29
1200.00,-15
1199.00,-0
1198.00,13
1197.00,17
1196.00,19
1195.00,21
1194.00,22
1193.00,18
1192.00,12
1191.00,7
1190.00,3
1189.00,16
1188.00,33
1187.00,51
1186.00,67
1185.00,77
1184.00,85
1183.00,93
1182.00,100
1181.00,92
1180.00,79
1179.00,66
1178.00,53
1177.00,46
1176.00,42
1175.00,37
1174.00,33
1173.00,26
1172.00,18
1171.00,10
1170.00,2
1169.00,-7
1168.00,-17
1167.00,-27
1166.00,-37
1165.00,-44
1164.00,-49
1163.00,-54
1162.00,-59
1161.00,-57
1160.00,-49
1159.00,-42
1158.00,-33
1157.00,-28
1156.00,-28
1155.00,-27
1154.00,-26
1153.00,-23
1152.00,-17
1151.00,-10
1150.00,-3
1149.00,-2
1148.00,-14
1147.00,-26
1146.00,-38
1145.00,-45
1144.00,-36
1143.00,-27
1142.00,-18
1141.00,-13
1140.00,-22
1139.00,-32
1138.00,-43
1137.00,-52
1136.00,-53
1135.00,-54
1134.00,-55
1133.00,-55
1132.00,-53
1131.00,-51
1130.00,-49
1129.00,-47
1128.00,-47
1127.00,-47
1126.00,-47
1125.00,-47
1124.00,-36
1123.00,-22
1122.00,-7
1121.00,8
1120.00,12
1119.00,7
1118.00,2
1117.00,-4
1116.00,-14
1115.00,-32
1114.00,-49
1113.00,-67
1112.00,-75
1111.00,-67
1110.00,-58
1109.00,-50
1108.00,-43
1107.00,-38
1106.00,-32
1105.00,-27
1104.00,-22
1103.00,-20
1102.00,-18
1101.00,-15
1100.00,-13
1099.00,-14
1098.00,-14
1097.00,-15
1096.00,-16
1095.00,-26
1094.00,-38
1093.00,-49
1092.00,-61
1091.00,-57
1090.00,-46
1089.00,-33
1088.00,-21
1087.00,-18
1086.00,-22
1085.00,-26
1084.00,-30
1083.00,-32
1082.00,-30
1081.00,-28
1080.00,-26
1079.00,-27
1078.00,-34
1077.00,-42
1076.00,-50
1075.00,-57
1074.00,-58
1073.00,-59
1072.00,-60
1071.00,-60
1070.00,-55
1069.00,-49
1068.00,-42
1067.00,-36
1066.00,-34
1065.00,-34
1064.00,-34
1063.00,-34
1062.00,-36
1061.00,-41
1060.00,-46
1059.00,-51
1058.00,-60
1057.00,-76
1056.00,-92
1055.00,-108
1054.00,-119
1053.00,-116
1052.00,-112
1051.00,-108
1050.00,-104
1049.00,-99
1048.00,-92
1047.00,-86
1046.00,-81
1045.00,-78
1044.00,-76
1043.00,-75
1042.00,-74
1041.00,-70
1040.00,-64
1039.00,-59
1038.00,-53
1037.00,-54
1036.00,-66
1035.00,-77
1034.00,-89
1033.00,-98
1032.00,-102
1031.00,-104
1030.00,-107
1029.00,-108
1028.00,-96
1027.00,-81
1026.00,-67
1025.00,-52
1024.00,-53
1023.00,-60
1022.00,-67
1021.00,-73
1020.00,-76
1019.00,-75
1018.00,-74
1017.00,-73
1016.00,-71
1015.00,-68
1014.00,-64
1013.00,-61
1012.00,-59
1011.00,-66
1010.00,-74
1009.00,-83
1008.00,-90
1007.00,-90
1006.00,-87
1005.00,-84
1004.00,-81
1003.00,-83
1002.00,-89
1001.00,-95
1000.00,-100
999.00,-105
998.00,-108
997.00,-111
996.00,-114
995.00,-119
994.00,-130
993.00,-141
992.00,-153
991.00,-162
990.00,-140
989.00,-106
988.00,-73
987.00,-40
986.00,-31
985.00,-40
984.00,-50
983.00,-60
982.00,-66
981.00,-62
980.00,-58
979.00,-54
978.00,-50
977.00,-45
976.00,-39
975.00,-34
974.00,-29
973.00,-30
972.00,-34
971.00,-38
970.00,-41
969.00,-37
968.00,-23
967.00,-11
966.00,3
965.00,10
964.00,-3
963.00,-17
962.00,-31
961.00,-44
960.00,-51
959.00,-57
958.00,-62
957.00,-68
956.00,-71
955.00,-72
954.00,-74
953.00,-75
952.00,-74
951.00,-70
950.00,-66
949.00,-62
948.00,-57
947.00,-45
946.00,-32
945.00,-21
944.00,-8
943.00,3
942.00,12
941.00,21
940.00,31
939.00,39
938.00,46
937.00,52
936.00,59
935.00,61
934.00,43
933.00,23
932.00,3
931.00,-17
930.00,-32
929.00,-44
928.00,-57
927.00,-69
926.00,-77
925.00,-80
924.00,-82
923.00,-84
922.00,-83
921.00,-70
920.00,-55
919.00,-40
918.00,-26
917.00,-15
916.00,-7
915.00,1
914.00,9
913.00,17
912.00,22
911.00,27
910.00,33
909.00,35
908.00,28
907.00,20
906.00,12
905.00,4
904.00,-7
903.00,-19
902.00,-31
901.00,-42
900.00,-50
899.00,-52
898.00,-54
897.00,-57
896.00,-55
895.00,-31
894.00,-4
893.00,23
892.00,50
891.00,54
890.00,45
889.00,37
888.00,29
887.00,30
886.00,50
885.00,71
884.00,93
883.00,112
882.00,105
881.00,91
880.00,77
879.00,64
878.00,53
877.00,44
876.00,36
875.00,28
874.00,27
873.00,53
872.00,80
871.00,107
870.00,135
869.00,146
868.00,150
867.00,154
866.00,158
865.00,158
864.00,153
863.00,146
862.00,140
861.00,133
860.00,118
859.00,101
858.00,84
857.00,67
856.00,65
855.00,75
854.00,85
853.00,96
852.00,105
851.00,110
850.00,115
849.00,120
848.00,124
847.00,118
846.00,106
845.00,95
844.00,83
843.00,77
842.00,82
841.00,88
840.00,94
839.00,99
838.00,106
837.00,112
836.00,118
835.00,124
834.00,125
833.00,121
832.00,117
831.00,113
830.00,110
829.00,121
828.00,133
827.00,144
826.00,156
825.00,163
824.00,168
823.00,172
822.00,177
821.00,178
820.00,168
819.00,156
818.00,144
817.00,133
816.00,125
815.00,120
814.00,114
813.00,108
812.00,107
811.00,119
810.00,131
809.00,144
808.00,156
807.00,177
806.00,201
805.00,225
804.00,249
803.00,262
802.00,257
801.00,250
800.00,244
799.00,238
798.00,243
797.00,251
796.00,259
795.00,267
794.00,269
793.00,260
792.00,251
791.00,242
790.00,233
789.00,224
788.00,216
787.00,207
786.00,199
785.00,193
784.00,191
783.00,188
782.00,186
781.00,184
780.00,192
779.00,201
778.00,210
777.00,219
776.00,218
775.00,205
774.00,193
773.00,180
772.00,169
771.00,172
770.00,178
769.00,185
768.00,191
767.00,201
766.00,216
765.00,231
764.00,246
763.00,259
762.00,264
761.00,266
760.00,269
759.00,271
758.00,269
757.00,261
756.00,252
755.00,243
754.00,237
753.00,245
752.00,257
751.00,269
750.00,281
749.00,295
748.00,311
747.00,325
746.00,340
745.00,354
744.00,353
743.00,346
742.00,340
741.00,333
740.00,326
739.00,317
738.00,309
737.00,300
736.00,291
735.00,298
734.00,309
733.00,321
732.00,333
731.00,341
730.00,341
729.00,341
728.00,342
727.00,342
726.00,347
725.00,353
724.00,359
723.00,364
722.00,368
721.00,372
720.00,375
719.00,378
718.00,381
717.00,377
716.00,369
715.00,361
714.00,353
713.00,349
712.00,369
711.00,393
710.00,414
709.00,436
708.00,446
707.00,440
706.00,433
705.00,426
704.00,421
703.00,427
702.00,436
701.00,445
700.00,454
699.00,457
698.00,452
697.00,447
696.00,442
695.00,436
694.00,426
693.00,414
692.00,403
691.00,391
690.00,383
689.00,390
688.00,398
687.00,407
686.00,414
685.00,424
684.00,437
683.00,450
682.00,463
681.00,473
680.00,471
679.00,466
678.00,461
677.00,456
676.00,459
675.00,478
674.00,495
673.00,513
672.00,531
671.00,536
670.00,536
669.00,536
668.00,537
667.00,538
666.00,545
665.00,553
664.00,562
663.00,569
662.00,572
661.00,571
660.00,570
659.00,568
658.00,567
657.00,570
656.00,573
655.00,578
654.00,582
653.00,589
652.00,604
651.00,620
650.00,634
649.00,649
648.00,652
647.00,645
646.00,639
645.00,633
644.00,630
643.00,647
642.00,669
641.00,689
640.00,710
639.00,722
638.00,718
637.00,713
636.00,709
635.00,704
634.00,697
633.00,689
632.00,681
631.00,672
630.00,664
629.00,658
628.00,652
627.00,646
626.00,640
625.00,639
624.00,645
623.00,651
622.00,657
621.00,663
620.00,666
619.00,669
618.00,671
617.00,674
616.00,676
615.00,674
614.00,672
613.00,669
612.00,667
611.00,662
610.00,653
609.00,643
608.00,634
607.00,625
606.00,634
605.00,653
604.00,672
603.00,690
602.00,706
601.00,699
600.00,690
599.00,680
598.00,670
597.00,665
596.00,669
595.00,673
594.00,677
593.00,682
592.00,683
591.00,683
590.00,682
589.00,682
588.00,682
587.00,694
586.00,709
585.00,724
584.00,739
583.00,749
582.00,744
581.00,739
580.00,733
579.00,728
578.00,724
577.00,723
576.00,722
575.00,720
574.00,719
573.00,719
572.00,720
571.00,721
570.00,721
569.00,722
568.00,723
567.00,725
566.00,727
565.00,729
564.00,732
563.00,738
562.00,745
561.00,752
560.00,758
559.00,763
558.00,768
557.00,773
556.00,776
555.00,781
554.00,786
553.00,792
552.00,797
551.00,803
550.00,806
549.00,796
548.00,785
547.00,773
546.00,762
545.00,755
544.00,754
543.00,753
542.00,752
541.00,751
540.00,756
539.00,766
538.00,775
537.00,785
536.00,794
535.00,811
534.00,830
533.00,849
532.00,869
531.00,885
530.00,892
529.00,896
528.00,901
527.00,907
526.00,914
525.00,925
524.00,935
523.00,946
522.00,957
521.00,955
520.00,940
519.00,925
518.00,910
517.00,895
516.00,888
515.00,884
514.00,879
513.00,875
512.00,870
511.00,862
510.00,853
509.00,844
508.00,835
507.00,827
506.00,820
505.00,814
504.00,808
503.00,801
502.00,800
501.00,804
500.00,808
499.00,813
498.00,818
497.00,821
496.00,823
495.00,826
494.00,827
493.00,829
492.00,826
491.00,821
490.00,816
489.00,811
488.00,806
487.00,796
486.00,785
485.00,775
484.00,764
483.00,757
482.00,762
481.00,768
480.00,775
479.00,781
478.00,788
477.00,799
476.00,808
475.00,818
474.00,829
473.00,831
472.00,823
471.00,815
470.00,808
469.00,800
468.00,795
467.00,794
466.00,792
465.00,790
464.00,788
463.00,789
462.00,790
461.00,790
460.00,792
459.00,793
458.00,793
457.00,792
456.00,792
455.00,792
454.00,791
453.00,788
452.00,785
451.00,783
450.00,780
449.00,778
448.00,782
447.00,786
446.00,790
445.00,793
444.00,798
443.00,804
442.00,811
441.00,817
440.00,823
439.00,826
438.00,826
437.00,825
436.00,823
435.00,822
434.00,823
433.00,824
432.00,825
431.00,826
430.00,827
429.00,828
428.00,829
427.00,829
426.00,830
425.00,830
424.00,829
423.00,828
422.00,825
421.00,823
420.00,822
419.00,831
418.00,841
417.00,850
416.00,859
415.00,867
414.00,871
413.00,874
412.00,877
411.00,880
410.00,882
409.00,883
408.00,884
407.00,885
406.00,887
405.00,890
404.00,896
403.00,902
402.00,908
401.00,914
400.00,921
399.00,933
398.00,946
397.00,957
396.00,968
395.00,974
394.00,975
393.00,976
392.00,978
391.00,979
390.00,977
389.00,971
388.00,965
387.00,959
386.00,953
385.00,948
384.00,943
383.00,939
382.00,934
381.00,930
380.00,923
379.00,915
378.00,907
377.00,899
376.00,892
375.00,902
374.00,920
373.00,938
372.00,955
371.00,972
370.00,967
369.00,955
368.00,943
367.00,931
366.00,919
365.00,917
364.00,918
363.00,918
362.00,919
361.00,919
360.00,923
359.00,926
358.00,930
357.00,934
356.00,937
355.00,937
354.00,937
353.00,936
352.00,935
351.00,935
350.00,936
349.00,937
348.00,939
347.00,940
346.00,942
345.00,942
344.00,943
343.00,942
342.00,942
341.00,943
340.00,951
339.00,959
338.00,968
337.00,976
336.00,985
335.00,993
334.00,1002
333.00,1011
332.00,1020
331.00,1027
330.00,1024
329.00,1021
328.00,1017
327.00,1013
326.00,1008
325.00,994
324.00,979
323.00,964
322.00,949
321.00,935
320.00,931
319.00,928
318.00,925
317.00,922
316.00,918
315.00,913
314.00,908
313.00,903
312.00,898
311.00,893
310.00,893
309.00,894
308.00,895
307.00,895
306.00,897
305.00,903
304.00,909
303.00,916
302.00,923
301.00,930
300.00,931
299.00,931
298.00,932
297.00,932
296.00,932
295.00,932
294.00,931
293.00,931
292.00,930
291.00,929
290.00,929
289.00,930
288.00,931
287.00,931
286.00,932
285.00,932
284.00,931
283.00,931
282.00,930
281.00,928
280.00,919
279.00,906
278.00,893
277.00,881
276.00,869
275.00,867
274.00,868
273.00,869
272.00,870
271.00,872
270.00,867
269.00,861
268.00,854
267.00,847
266.00,841
265.00,836
264.00,833
263.00,830
262.00,827
261.00,824
260.00,822
259.00,820
258.00,818
257.00,817
256.00,816
255.00,815
254.00,815
253.00,816
252.00,816
251.00,817
250.00,814
249.00,807
248.00,800
247.00,793
246.00,786
245.00,783
244.00,786
243.00,789
242.00,792
241.00,795
240.00,799
239.00,801
238.00,804
237.00,806
236.00,809
235.00,811
234.00,811
233.00,810
232.00,809
231.00,808
230.00,809
229.00,813
228.00,818
227.00,824
226.00,829
225.00,834
224.00,837
223.00,839
222.00,841
221.00,844
220.00,845
219.00,833
218.00,817
217.00,800
216.00,784
215.00,768
214.00,752
213.00,737
212.00,721
211.00,706
210.00,690
209.00,680
208.00,673
207.00,667
206.00,660
205.00,654
204.00,651
203.00,653
202.00,656
201.00,658
200.00,660
199.00,661
198.00,658
197.00,655
196.00,651
195.00,649
194.00,646
193.00,643
192.00,640
191.00,637
190.00,634
189.00,633
188.00,638
187.00,643
186.00,649
185.00,655
184.00,658
183.00,643
182.00,623
181.00,604
180.00,585
179.00,565
178.00,550
177.00,536
176.00,523
175.00,509
174.00,496
173.00,481
172.00,464
171.00,448
170.00,432
169.00,416
168.00,409
167.00,417
166.00,424
165.00,431
164.00,439
163.00,443
162.00,440
161.00,437
160.00,433
159.00,430
158.00,425
157.00,410
156.00,395
155.00,379
154.00,364
153.00,348
152.00,338
151.00,329
150.00,320
149.00,311
148.00,302
147.00,286
146.00,267
145.00,247
144.00,228
143.00,208
142.00,193
141.00,182
140.00,171
139.00,160
138.00,149
137.00,136
136.00,118
135.00,101
134.00,83
133.00,65
132.00,47
131.00,31
130.00,14
129.00,-2
128.00,-18
127.00,-34
126.00,-41
125.00,-45
124.00,-49
123.00,-53
122.00,-57
121.00,-61
120.00,-64
119.00,-66
118.00,-70
117.00,-73
116.00,-85
115.00,-112
114.00,-139
113.00,-166
112.00,-194
111.00,-219
110.00,-237
109.00,-255
108.00,-273
107.00,-290
106.00,-308
105.00,-332
104.00,-357
103.00,-381
102.00,-406
101.00,-419
100.00,-431
