Created as New Dataset,
Raman Shift / cm-1,INT
3200.00,592
3199.00,543
3198.00,402
3197.00,379
3196.00,451
3195.00,462
3194.00,454
3193.00,439
3192.00,460
3191.00,534
3190.00,551
3189.00,544
3188.00,567
3187.00,606
3186.00,668
3185.00,633
3184.00,511
3183.00,377
3182.00,258
3181.00,265
3180.00,284
3179.00,282
3178.00,255
3177.00,210
3176.00,191
3175.00,181
3174.00,174
3173.00,131
3172.00,11
3171.00,-29
3170.00,6
3169.00,175
3168.00,356
3167.00,371
3166.00,372
3165.00,397
3164.00,419
3163.00,434
3162.00,372
3161.00,282
3160.00,210
3159.00,155
3158.00,140
3157.00,129
3156.00,117
3155.00,63
3154.00,-2
3153.00,4
3152.00,21
3151.00,13
3150.00,-40
3149.00,-167
3148.00,-355
3147.00,-542
3146.00,-68
3145.00,580
3144.00,905
3143.00,993
3142.00,587
3141.00,323
3140.00,308
3139.00,200
3138.00,44
3137.00,1
3136.00,-6
3135.00,-10
3134.00,46
3133.00,256
3132.00,295
3131.00,87
3130.00,103
3129.00,255
3128.00,313
3127.00,331
3126.00,321
3125.00,301
3124.00,264
3123.00,268
3122.00,337
3121.00,393
3120.00,435
3119.00,441
3118.00,421
3117.00,311
3116.00,199
3115.00,180
3114.00,165
3113.00,129
3112.00,109
3111.00,111
3110.00,107
3109.00,99
3108.00,107
3107.00,116
3106.00,71
3105.00,31
3104.00,60
3103.00,109
3102.00,192
3101.00,240
3100.00,233
3099.00,224
3098.00,214
3097.00,233
3096.00,267
3095.00,288
3094.00,315
3093.00,403
3092.00,483
3091.00,483
3090.00,469
3089.00,438
3088.00,414
3087.00,403
3086.00,383
3085.00,352
3084.00,231
3083.00,73
3082.00,150
3081.00,278
3080.00,178
3079.00,45
3078.00,2
3077.00,-13
3076.00,22
3075.00,39
3074.00,14
3073.00,4
3072.00,18
3071.00,41
3070.00,74
3069.00,164
3068.00,277
3067.00,250
3066.00,170
3065.00,147
3064.00,135
3063.00,97
3062.00,61
3061.00,55
3060.00,51
3059.00,43
3058.00,67
3057.00,169
3056.00,235
3055.00,240
3054.00,246
3053.00,256
3052.00,249
3051.00,227
3050.00,222
3049.00,225
3048.00,197
3047.00,156
3046.00,140
3045.00,132
3044.00,113
3043.00,94
3042.00,98
3041.00,99
3040.00,64
3039.00,27
3038.00,0
3037.00,-24
3036.00,-44
3035.00,-61
3034.00,-67
3033.00,-4
3032.00,187
3031.00,303
3030.00,295
3029.00,214
3028.00,40
3027.00,-34
3026.00,-14
3025.00,-2
3024.00,6
3023.00,96
3022.00,232
3021.00,211
3020.00,106
3019.00,75
3018.00,85
3017.00,185
3016.00,309
3015.00,280
3014.00,203
3013.00,179
3012.00,167
3011.00,125
3010.00,84
3009.00,96
3008.00,128
3007.00,217
3006.00,293
3005.00,208
3004.00,104
3003.00,71
3002.00,73
3001.00,181
3000.00,287
2999.00,327
2998.00,336
2997.00,249
2996.00,174
2995.00,194
2994.00,215
2993.00,199
2992.00,182
2991.00,182
2990.00,182
2989.00,174
2988.00,166
2987.00,159
2986.00,162
2985.00,203
2984.00,237
2983.00,233
2982.00,226
2981.00,222
2980.00,225
2979.00,251
2978.00,275
2977.00,282
2976.00,289
2975.00,307
2974.00,321
2973.00,316
2972.00,304
2971.00,274
2970.00,246
2969.00,236
2968.00,228
2967.00,220
2966.00,212
2965.00,196
2964.00,182
2963.00,184
2962.00,187
2961.00,188
2960.00,187
2959.00,183
2958.00,177
2957.00,169
2956.00,161
2955.00,160
2954.00,158
2953.00,128
2952.00,93
2951.00,78
2950.00,68
2949.00,37
2948.00,1
2947.00,-22
2946.00,-38
2945.00,-48
2944.00,-53
2943.00,-26
2942.00,19
2941.00,44
2940.00,58
2939.00,107
2938.00,180
2937.00,228
2936.00,251
2935.00,237
2934.00,179
2933.00,146
2932.00,148
2931.00,149
2930.00,151
2929.00,158
2928.00,178
2927.00,193
2926.00,196
2925.00,197
2924.00,198
2923.00,194
2922.00,169
2921.00,146
2920.00,149
2919.00,156
2918.00,153
2917.00,145
2916.00,120
2915.00,89
2914.00,41
2913.00,-13
2912.00,-36
2911.00,-41
2910.00,-32
2909.00,-12
2908.00,-15
2907.00,-43
2906.00,-41
2905.00,8
2904.00,46
2903.00,57
2902.00,70
2901.00,94
2900.00,107
2899.00,72
2898.00,37
2897.00,39
2896.00,52
2895.00,98
2894.00,151
2893.00,164
2892.00,162
2891.00,187
2890.00,228
2889.00,242
2888.00,231
2887.00,187
2886.00,93
2885.00,21
2884.00,4
2883.00,-2
2882.00,25
2881.00,45
2880.00,10
2879.00,-25
2878.00,-1
2877.00,35
2876.00,62
2875.00,87
2874.00,101
2873.00,111
2872.00,106
2871.00,87
2870.00,69
2869.00,54
2868.00,42
2867.00,35
2866.00,31
2865.00,38
2864.00,45
2863.00,42
2862.00,40
2861.00,60
2860.00,87
2859.00,99
2858.00,101
2857.00,98
2856.00,89
2855.00,85
2854.00,87
2853.00,94
2852.00,118
2851.00,139
2850.00,130
2849.00,120
2848.00,142
2847.00,174
2846.00,188
2845.00,192
2844.00,186
2843.00,169
2842.00,154
2841.00,142
2840.00,127
2839.00,103
2838.00,79
2837.00,67
2836.00,57
2835.00,41
2834.00,23
2833.00,16
2832.00,17
2831.00,18
2830.00,20
2829.00,26
2828.00,42
2827.00,54
2826.00,45
2825.00,33
2824.00,28
2823.00,26
2822.00,21
2821.00,13
2820.00,4
2819.00,-10
2818.00,-12
2817.00,15
2816.00,40
2815.00,42
2814.00,40
2813.00,33
2812.00,24
2811.00,13
2810.00,-0
2809.00,0
2808.00,21
2807.00,36
2806.00,34
2805.00,29
2804.00,19
2803.00,8
2802.00,4
2801.00,3
2800.00,21
2799.00,56
2798.00,78
2797.00,71
2796.00,66
2795.00,68
2794.00,72
2793.00,68
2792.00,63
2791.00,66
2790.00,75
2789.00,77
2788.00,69
2787.00,61
2786.00,54
2785.00,47
2784.00,42
2783.00,38
2782.00,35
2781.00,31
2780.00,34
2779.00,47
2778.00,58
2777.00,62
2776.00,63
2775.00,46
2774.00,24
2773.00,10
2772.00,-0
2771.00,-5
2770.00,-2
2769.00,-1
2768.00,-15
2767.00,-30
2766.00,-38
2765.00,-43
2764.00,-11
2763.00,51
2762.00,90
2761.00,81
2760.00,70
2759.00,53
2758.00,35
2757.00,25
2756.00,18
2755.00,7
2754.00,-10
2753.00,-23
2752.00,-29
2751.00,-34
2750.00,-37
2749.00,-39
2748.00,-37
2747.00,-32
2746.00,-18
2745.00,13
2744.00,43
2743.00,70
2742.00,97
2741.00,102
2740.00,99
2739.00,96
2738.00,93
2737.00,90
2736.00,87
2735.00,83
2734.00,74
2733.00,63
2732.00,70
2731.00,92
2730.00,108
2729.00,103
2728.00,98
2727.00,95
2726.00,93
2725.00,114
2724.00,151
2723.00,176
2722.00,169
2721.00,157
2720.00,122
2719.00,83
2718.00,65
2717.00,60
2716.00,48
2715.00,18
2714.00,-12
2713.00,-39
2712.00,-67
2711.00,-82
2710.00,-90
2709.00,-97
2708.00,-101
2707.00,-104
2706.00,-96
2705.00,-87
2704.00,-62
2703.00,-28
2702.00,2
2701.00,24
2700.00,43
2699.00,48
2698.00,51
2697.00,47
2696.00,38
2695.00,27
2694.00,10
2693.00,-6
2692.00,-13
2691.00,-18
2690.00,-16
2689.00,-9
2688.00,-5
2687.00,-8
2686.00,-12
2685.00,-20
2684.00,-28
2683.00,-28
2682.00,-17
2681.00,-8
2680.00,-9
2679.00,-11
2678.00,-17
2677.00,-23
2676.00,-8
2675.00,47
2674.00,96
2673.00,100
2672.00,94
2671.00,88
2670.00,82
2669.00,77
2668.00,73
2667.00,70
2666.00,68
2665.00,67
2664.00,59
2663.00,44
2662.00,33
2661.00,42
2660.00,54
2659.00,80
2658.00,116
2657.00,128
2656.00,76
2655.00,27
2654.00,-2
2653.00,-27
2652.00,-30
2651.00,-7
2650.00,12
2649.00,8
2648.00,-0
2647.00,13
2646.00,37
2645.00,46
2644.00,15
2643.00,-17
2642.00,-23
2641.00,-20
2640.00,-12
2639.00,5
2638.00,21
2637.00,27
2636.00,32
2635.00,24
2634.00,6
2633.00,-7
2632.00,-2
2631.00,5
2630.00,15
2629.00,27
2628.00,43
2627.00,68
2626.00,90
2625.00,66
2624.00,30
2623.00,20
2622.00,46
2621.00,67
2620.00,63
2619.00,53
2618.00,34
2617.00,8
2616.00,-14
2615.00,-15
2614.00,-14
2613.00,-6
2612.00,6
2611.00,14
2610.00,10
2609.00,5
2608.00,-1
2607.00,-8
2606.00,-13
2605.00,-11
2604.00,-9
2603.00,-2
2602.00,7
2601.00,12
2600.00,9
2599.00,7
2598.00,6
2597.00,5
2596.00,3
2595.00,-0
2594.00,-2
2593.00,8
2592.00,19
2591.00,23
2590.00,17
2589.00,12
2588.00,11
2587.00,12
2586.00,2
2585.00,-16
2584.00,-33
2583.00,-41
2582.00,-48
2581.00,-22
2580.00,29
2579.00,59
2578.00,-3
2577.00,-74
2576.00,-117
2575.00,-138
2574.00,-152
2573.00,-130
2572.00,-105
2571.00,-84
2570.00,-66
2569.00,-54
2568.00,-66
2567.00,-81
2566.00,-72
2565.00,-47
2564.00,-28
2563.00,-31
2562.00,-37
2561.00,-17
2560.00,21
2559.00,50
2558.00,44
2557.00,33
2556.00,34
2555.00,46
2554.00,56
2553.00,61
2552.00,66
2551.00,65
2550.00,59
2549.00,52
2548.00,34
2547.00,15
2546.00,24
2545.00,63
2544.00,97
2543.00,99
2542.00,93
2541.00,77
2540.00,47
2539.00,20
2538.00,15
2537.00,15
2536.00,16
2535.00,17
2534.00,18
2533.00,18
2532.00,18
2531.00,22
2530.00,36
2529.00,50
2528.00,51
2527.00,46
2526.00,47
2525.00,65
2524.00,85
2523.00,94
2522.00,97
2521.00,101
2520.00,106
2519.00,110
2518.00,110
2517.00,104
2516.00,98
2515.00,93
2514.00,87
2513.00,82
2512.00,77
2511.00,72
2510.00,62
2509.00,51
2508.00,36
2507.00,12
2506.00,-12
2505.00,-26
2504.00,-34
2503.00,-35
2502.00,-9
2501.00,18
2500.00,29
2499.00,24
2498.00,20
2497.00,15
2496.00,10
2495.00,5
2494.00,1
2493.00,-4
2492.00,-7
2491.00,-9
2490.00,-8
2489.00,2
2488.00,13
2487.00,3
2486.00,-21
2485.00,-38
2484.00,-16
2483.00,13
2482.00,25
2481.00,15
2480.00,5
2479.00,-0
2478.00,-3
2477.00,-6
2476.00,-9
2475.00,-11
2474.00,-9
2473.00,-4
2472.00,0
2471.00,-4
2470.00,-10
2469.00,-11
2468.00,-5
2467.00,1
2466.00,8
2465.00,16
2464.00,26
2463.00,42
2462.00,59
2461.00,69
2460.00,71
2459.00,72
2458.00,69
2457.00,65
2456.00,60
2455.00,53
2454.00,45
2453.00,39
2452.00,33
2451.00,29
2450.00,40
2449.00,53
2448.00,61
2447.00,58
2446.00,56
2445.00,60
2444.00,69
2443.00,76
2442.00,70
2441.00,64
2440.00,63
2439.00,69
2438.00,75
2437.00,75
2436.00,72
2435.00,69
2434.00,64
2433.00,60
2432.00,54
2431.00,45
2430.00,37
2429.00,31
2428.00,27
2427.00,23
2426.00,18
2425.00,13
2424.00,15
2423.00,25
2422.00,34
2421.00,32
2420.00,26
2419.00,20
2418.00,15
2417.00,9
2416.00,5
2415.00,4
2414.00,3
2413.00,16
2412.00,35
2411.00,44
2410.00,13
2409.00,-23
2408.00,-44
2407.00,-40
2406.00,-35
2405.00,-5
2404.00,38
2403.00,72
2402.00,60
2401.00,41
2400.00,28
2399.00,28
2398.00,27
2397.00,37
2396.00,53
2395.00,67
2394.00,65
2393.00,60
2392.00,55
2391.00,49
2390.00,43
2389.00,44
2388.00,52
2387.00,60
2386.00,61
2385.00,58
2384.00,60
2383.00,76
2382.00,95
2381.00,103
2380.00,96
2379.00,88
2378.00,92
2377.00,101
2376.00,109
2375.00,105
2374.00,99
2373.00,91
2372.00,79
2371.00,67
2370.00,55
2369.00,44
2368.00,32
2367.00,32
2366.00,36
2365.00,38
2364.00,32
2363.00,25
2362.00,16
2361.00,2
2360.00,-12
2359.00,-11
2358.00,4
2357.00,20
2356.00,30
2355.00,38
2354.00,44
2353.00,36
2352.00,27
2351.00,20
2350.00,18
2349.00,15
2348.00,22
2347.00,35
2346.00,47
2345.00,45
2344.00,37
2343.00,30
2342.00,23
2341.00,16
2340.00,11
2339.00,11
2338.00,10
2337.00,10
2336.00,10
2335.00,11
2334.00,7
2333.00,1
2332.00,-4
2331.00,-7
2330.00,-10
2329.00,-11
2328.00,-6
2327.00,-0
2326.00,2
2325.00,-2
2324.00,-5
2323.00,-4
2322.00,-0
2321.00,3
2320.00,4
2319.00,3
2318.00,7
2317.00,30
2316.00,56
2315.00,72
2314.00,70
2313.00,67
2312.00,56
2311.00,36
2310.00,17
2309.00,17
2308.00,28
2307.00,38
2306.00,40
2305.00,41
2304.00,38
2303.00,17
2302.00,-5
2301.00,-19
2300.00,-12
2299.00,-5
2298.00,15
2297.00,49
2296.00,81
2295.00,88
2294.00,80
2293.00,72
2292.00,67
2291.00,63
2290.00,59
2289.00,56
2288.00,53
2287.00,51
2286.00,50
2285.00,49
2284.00,46
2283.00,38
2282.00,31
2281.00,35
2280.00,49
2279.00,62
2278.00,64
2277.00,61
2276.00,59
2275.00,66
2274.00,76
2273.00,83
2272.00,83
2271.00,81
2270.00,78
2269.00,71
2268.00,65
2267.00,59
2266.00,57
2265.00,54
2264.00,51
2263.00,49
2262.00,47
2261.00,52
2260.00,63
2259.00,72
2258.00,69
2257.00,61
2256.00,53
2255.00,47
2254.00,41
2253.00,36
2252.00,33
2251.00,30
2250.00,28
2249.00,27
2248.00,27
2247.00,26
2246.00,24
2245.00,22
2244.00,20
2243.00,19
2242.00,18
2241.00,16
2240.00,14
2239.00,12
2238.00,32
2237.00,60
2236.00,86
2235.00,86
2234.00,77
2233.00,69
2232.00,66
2231.00,63
2230.00,60
2229.00,56
2228.00,51
2227.00,48
2226.00,50
2225.00,51
2224.00,51
2223.00,48
2222.00,44
2221.00,38
2220.00,30
2219.00,22
2218.00,35
2217.00,67
2216.00,99
2215.00,92
2214.00,59
2213.00,27
2212.00,30
2211.00,50
2210.00,70
2209.00,73
2208.00,71
2207.00,69
2206.00,71
2205.00,75
2204.00,77
2203.00,68
2202.00,56
2201.00,44
2200.00,39
2199.00,35
2198.00,30
2197.00,26
2196.00,23
2195.00,19
2194.00,14
2193.00,9
2192.00,5
2191.00,1
2190.00,-2
2189.00,0
2188.00,14
2187.00,27
2186.00,34
2185.00,29
2184.00,24
2183.00,29
2182.00,45
2181.00,61
2180.00,65
2179.00,59
2178.00,53
2177.00,50
2176.00,49
2175.00,49
2174.00,48
2173.00,46
2172.00,45
2171.00,53
2170.00,67
2169.00,81
2168.00,89
2167.00,94
2166.00,98
2165.00,97
2164.00,94
2163.00,93
2162.00,107
2161.00,128
2160.00,148
2159.00,165
2158.00,179
2157.00,193
2156.00,193
2155.00,191
2154.00,188
2153.00,184
2152.00,179
2151.00,173
2150.00,158
2149.00,141
2148.00,124
2147.00,117
2146.00,112
2145.00,108
2144.00,105
2143.00,102
2142.00,102
2141.00,118
2140.00,137
2139.00,152
2138.00,146
2137.00,135
2136.00,127
2135.00,131
2134.00,136
2133.00,141
2132.00,140
2131.00,139
2130.00,137
2129.00,127
2128.00,117
2127.00,107
2126.00,100
2125.00,93
2124.00,88
2123.00,93
2122.00,100
2121.00,105
2120.00,104
2119.00,102
2118.00,100
2117.00,97
2116.00,95
2115.00,96
2114.00,123
2113.00,155
2112.00,182
2111.00,177
2110.00,165
2109.00,155
2108.00,157
2107.00,162
2106.00,166
2105.00,163
2104.00,159
2103.00,155
2102.00,146
2101.00,136
2100.00,126
2099.00,118
2098.00,112
2097.00,105
2096.00,98
2095.00,90
2094.00,83
2093.00,90
2092.00,102
2091.00,114
2090.00,112
2089.00,103
2088.00,94
2087.00,97
2086.00,106
2085.00,115
2084.00,132
2083.00,153
2082.00,174
2081.00,177
2080.00,166
2079.00,154
2078.00,145
2077.00,138
2076.00,131
2075.00,122
2074.00,110
2073.00,99
2072.00,96
2071.00,106
2070.00,117
2069.00,123
2068.00,121
2067.00,119
2066.00,119
2065.00,126
2064.00,133
2063.00,135
2062.00,121
2061.00,107
2060.00,100
2059.00,117
2058.00,136
2057.00,153
2056.00,151
2055.00,148
2054.00,144
2053.00,139
2052.00,134
2051.00,130
2050.00,142
2049.00,158
2048.00,173
2047.00,172
2046.00,165
2045.00,158
2044.00,154
2043.00,150
2042.00,147
2041.00,146
2040.00,145
2039.00,145
2038.00,149
2037.00,159
2036.00,168
2035.00,169
2034.00,157
2033.00,144
2032.00,132
2031.00,122
2030.00,112
2029.00,114
2028.00,154
2027.00,195
2026.00,229
2025.00,219
2024.00,201
2023.00,185
2022.00,176
2021.00,168
2020.00,160
2019.00,153
2018.00,145
2017.00,137
2016.00,133
2015.00,130
2014.00,128
2013.00,137
2012.00,156
2011.00,176
2010.00,187
2009.00,186
2008.00,186
2007.00,186
2006.00,187
2005.00,188
2004.00,187
2003.00,179
2002.00,170
2001.00,162
2000.00,152
1999.00,142
1998.00,135
1997.00,153
1996.00,179
1995.00,203
1994.00,205
1993.00,197
1992.00,189
1991.00,185
1990.00,185
1989.00,185
1988.00,183
1987.00,177
1986.00,171
1985.00,165
1984.00,159
1983.00,153
1982.00,149
1981.00,153
1980.00,159
1979.00,164
1978.00,164
1977.00,162
1976.00,160
1975.00,176
1974.00,199
1973.00,222
1972.00,229
1971.00,223
1970.00,216
1969.00,213
1968.00,214
1967.00,216
1966.00,216
1965.00,213
1964.00,210
1963.00,208
1962.00,209
1961.00,212
1960.00,213
1959.00,203
1958.00,191
1957.00,178
1956.00,170
1955.00,165
1954.00,160
1953.00,158
1952.00,159
1951.00,160
1950.00,164
1949.00,175
1948.00,185
1947.00,193
1946.00,187
1945.00,179
1944.00,172
1943.00,177
1942.00,187
1941.00,196
1940.00,197
1939.00,193
1938.00,188
1937.00,185
1936.00,182
1935.00,180
1934.00,176
1933.00,169
1932.00,162
1931.00,158
1930.00,172
1929.00,191
1928.00,209
1927.00,223
1926.00,235
1925.00,247
1924.00,248
1923.00,240
1922.00,231
1921.00,226
1920.00,229
1919.00,232
1918.00,233
1917.00,223
1916.00,212
1915.00,202
1914.00,207
1913.00,216
1912.00,225
1911.00,230
1910.00,231
1909.00,233
1908.00,236
1907.00,243
1906.00,250
1905.00,255
1904.00,253
1903.00,249
1902.00,246
1901.00,245
1900.00,244
1899.00,243
1898.00,237
1897.00,227
1896.00,217
1895.00,211
1894.00,215
1893.00,219
1892.00,221
1891.00,216
1890.00,209
1889.00,203
1888.00,202
1887.00,204
1886.00,206
1885.00,206
1884.00,203
1883.00,199
1882.00,195
1881.00,187
1880.00,179
1879.00,171
1878.00,164
1877.00,158
1876.00,151
1875.00,156
1874.00,167
1873.00,178
1872.00,188
1871.00,199
1870.00,209
1869.00,217
1868.00,217
1867.00,217
1866.00,216
1865.00,211
1864.00,205
1863.00,199
1862.00,195
1861.00,193
1860.00,191
1859.00,198
1858.00,227
1857.00,257
1856.00,285
1855.00,284
1854.00,277
1853.00,269
1852.00,261
1851.00,252
1850.00,243
1849.00,237
1848.00,236
1847.00,235
1846.00,234
1845.00,229
1844.00,224
1843.00,219
1842.00,217
1841.00,216
1840.00,216
1839.00,216
1838.00,218
1837.00,221
1836.00,222
1835.00,219
1834.00,215
1833.00,211
1832.00,209
1831.00,208
1830.00,208
1829.00,207
1828.00,208
1827.00,208
1826.00,208
1825.00,207
1824.00,205
1823.00,203
1822.00,202
1821.00,203
1820.00,204
1819.00,204
1818.00,202
1817.00,200
1816.00,198
1815.00,195
1814.00,191
1813.00,188
1812.00,184
1811.00,180
1810.00,176
1809.00,177
1808.00,188
1807.00,200
1806.00,209
1805.00,206
1804.00,200
1803.00,194
1802.00,200
1801.00,214
1800.00,228
1799.00,237
1798.00,233
1797.00,228
1796.00,224
1795.00,220
1794.00,216
1793.00,212
1792.00,209
1791.00,205
1790.00,201
1789.00,197
1788.00,189
1787.00,181
1786.00,173
1785.00,167
1784.00,162
1783.00,157
1782.00,152
1781.00,148
1780.00,143
1779.00,139
1778.00,143
1777.00,149
1776.00,154
1775.00,156
1774.00,154
1773.00,151
1772.00,150
1771.00,151
1770.00,153
1769.00,154
1768.00,152
1767.00,148
1766.00,144
1765.00,142
1764.00,143
1763.00,144
1762.00,145
1761.00,149
1760.00,154
1759.00,159
1758.00,164
1757.00,170
1756.00,176
1755.00,181
1754.00,183
1753.00,184
1752.00,185
1751.00,187
1750.00,190
1749.00,193
1748.00,195
1747.00,197
1746.00,198
1745.00,199
1744.00,197
1743.00,194
1742.00,191
1741.00,192
1740.00,198
1739.00,205
1738.00,211
1737.00,216
1736.00,221
1735.00,226
1734.00,226
1733.00,222
1732.00,217
1731.00,213
1730.00,208
1729.00,202
1728.00,197
1727.00,201
1726.00,212
1725.00,222
1724.00,231
1723.00,235
1722.00,238
1721.00,241
1720.00,238
1719.00,233
1718.00,227
1717.00,221
1716.00,214
1715.00,208
1714.00,202
1713.00,204
1712.00,209
1711.00,213
1710.00,218
1709.00,223
1708.00,228
1707.00,232
1706.00,236
1705.00,239
1704.00,242
1703.00,241
1702.00,236
1701.00,231
1700.00,227
1699.00,233
1698.00,240
1697.00,248
1696.00,248
1695.00,240
1694.00,232
1693.00,225
1692.00,230
1691.00,236
1690.00,241
1689.00,242
1688.00,237
1687.00,233
1686.00,229
1685.00,233
1684.00,237
1683.00,242
1682.00,242
1681.00,239
1680.00,236
1679.00,234
1678.00,244
1677.00,255
1676.00,265
1675.00,267
1674.00,262
1673.00,256
1672.00,252
1671.00,255
1670.00,259
1669.00,264
1668.00,269
1667.00,274
1666.00,279
1665.00,283
1664.00,276
1663.00,267
1662.00,258
1661.00,262
1660.00,279
1659.00,297
1658.00,312
1657.00,307
1656.00,298
1655.00,290
1654.00,282
1653.00,276
1652.00,270
1651.00,267
1650.00,288
1649.00,316
1648.00,344
1647.00,357
1646.00,348
1645.00,338
1644.00,329
1643.00,322
1642.00,317
1641.00,311
1640.00,308
1639.00,308
1638.00,308
1637.00,308
1636.00,303
1635.00,295
1634.00,287
1633.00,280
1632.00,272
1631.00,264
1630.00,257
1629.00,257
1628.00,261
1627.00,265
1626.00,267
1625.00,265
1624.00,262
1623.00,260
1622.00,266
1621.00,281
1620.00,296
1619.00,309
1618.00,304
1617.00,296
1616.00,288
1615.00,281
1614.00,274
1613.00,268
1612.00,262
1611.00,256
1610.00,252
1609.00,247
1608.00,242
1607.00,236
1606.00,230
1605.00,225
1604.00,232
1603.00,245
1602.00,259
1601.00,269
1600.00,266
1599.00,261
1598.00,257
1597.00,260
1596.00,269
1595.00,278
1594.00,285
1593.00,281
1592.00,274
1591.00,267
1590.00,260
1589.00,253
1588.00,247
1587.00,240
1586.00,232
1585.00,223
1584.00,215
1583.00,209
1582.00,216
1581.00,223
1580.00,231
1579.00,242
1578.00,258
1577.00,274
1576.00,288
1575.00,291
1574.00,291
1573.00,291
1572.00,291
1571.00,290
1570.00,288
1569.00,287
1568.00,283
1567.00,278
1566.00,272
1565.00,266
1564.00,256
1563.00,245
1562.00,234
1561.00,232
1560.00,240
1559.00,249
1558.00,257
1557.00,261
1556.00,264
1555.00,267
1554.00,266
1553.00,255
1552.00,244
1551.00,232
1550.00,222
1549.00,214
1548.00,205
1547.00,197
1546.00,198
1545.00,200
1544.00,203
1543.00,206
1542.00,208
1541.00,210
1540.00,212
1539.00,221
1538.00,237
1537.00,252
1536.00,267
1535.00,278
1534.00,288
1533.00,299
1532.00,304
1531.00,298
1530.00,292
1529.00,286
1528.00,284
1527.00,285
1526.00,286
1525.00,286
1524.00,280
1523.00,272
1522.00,264
1521.00,258
1520.00,258
1519.00,258
1518.00,258
1517.00,252
1516.00,240
1515.00,227
1514.00,216
1513.00,213
1512.00,211
1511.00,210
1510.00,206
1509.00,197
1508.00,188
1507.00,179
1506.00,177
1505.00,182
1504.00,186
1503.00,191
1502.00,191
1501.00,188
1500.00,186
1499.00,186
1498.00,195
1497.00,206
1496.00,216
1495.00,218
1494.00,208
1493.00,199
1492.00,189
1491.00,187
1490.00,188
1489.00,189
1488.00,189
1487.00,188
1486.00,186
1485.00,184
1484.00,184
1483.00,188
1482.00,192
1481.00,196
1480.00,199
1479.00,200
1478.00,201
1477.00,202
1476.00,203
1475.00,203
1474.00,203
1473.00,203
1472.00,203
1471.00,202
1470.00,202
1469.00,201
1468.00,199
1467.00,198
1466.00,196
1465.00,194
1464.00,192
1463.00,190
1462.00,188
1461.00,192
1460.00,197
1459.00,202
1458.00,206
1457.00,209
1456.00,211
1455.00,214
1454.00,213
1453.00,208
1452.00,202
1451.00,197
1450.00,194
1449.00,193
1448.00,191
1447.00,190
1446.00,191
1445.00,194
1444.00,196
1443.00,197
1442.00,193
1441.00,190
1440.00,186
1439.00,185
1438.00,188
1437.00,191
1436.00,193
1435.00,191
1434.00,185
1433.00,180
1432.00,175
1431.00,179
1430.00,185
1429.00,190
1428.00,194
1427.00,191
1426.00,187
1425.00,183
1424.00,180
1423.00,177
1422.00,174
1421.00,172
1420.00,167
1419.00,162
1418.00,156
1417.00,151
1416.00,145
1415.00,138
1414.00,131
1413.00,127
1412.00,142
1411.00,159
1410.00,176
1409.00,188
1408.00,186
1407.00,183
1406.00,180
1405.00,177
1404.00,172
1403.00,168
1402.00,164
1401.00,158
1400.00,152
1399.00,146
1398.00,139
1397.00,133
1396.00,126
1395.00,120
1394.00,113
1393.00,108
1392.00,102
1391.00,97
1390.00,92
1389.00,87
1388.00,82
1387.00,77
1386.00,77
1385.00,87
1384.00,97
1383.00,107
1382.00,108
1381.00,102
1380.00,95
1379.00,89
1378.00,86
1377.00,85
1376.00,84
1375.00,83
1374.00,80
1373.00,75
1372.00,71
1371.00,68
1370.00,73
1369.00,79
1368.00,84
1367.00,88
1366.00,82
1365.00,76
1364.00,70
1363.00,67
1362.00,69
1361.00,72
1360.00,75
1359.00,76
1358.00,73
1357.00,71
1356.00,68
1355.00,72
1354.00,80
1353.00,88
1352.00,97
1351.00,105
1350.00,114
1349.00,123
1348.00,130
1347.00,134
1346.00,135
1345.00,137
1344.00,139
1343.00,142
1342.00,144
1341.00,146
1340.00,147
1339.00,142
1338.00,137
1337.00,132
1336.00,126
1335.00,120
1334.00,113
1333.00,106
1332.00,99
1331.00,93
1330.00,86
1329.00,80
1328.00,79
1327.00,82
1326.00,85
1325.00,88
1324.00,85
1323.00,78
1322.00,71
1321.00,64
1320.00,56
1319.00,49
1318.00,41
1317.00,34
1316.00,36
1315.00,40
1314.00,44
1313.00,49
1312.00,60
1311.00,74
1310.00,88
1309.00,99
1308.00,98
1307.00,95
1306.00,92
1305.00,87
1304.00,77
1303.00,68
1302.00,58
1301.00,51
1300.00,52
1299.00,54
1298.00,57
1297.00,58
1296.00,56
1295.00,55
1294.00,53
1293.00,54
1292.00,55
1291.00,57
1290.00,60
1289.00,59
1288.00,56
1287.00,52
1286.00,49
1285.00,50
1284.00,55
1283.00,60
1282.00,65
1281.00,65
1280.00,62
1279.00,58
1278.00,54
1277.00,57
1276.00,63
1275.00,68
1274.00,74
1273.00,72
1272.00,66
1271.00,61
1270.00,55
1269.00,51
1268.00,48
1267.00,45
1266.00,42
1265.00,41
1264.00,42
1263.00,42
1262.00,43
1261.00,40
1260.00,37
1259.00,34
1258.00,31
1257.00,31
1256.00,33
1255.00,35
1254.00,36
1253.00,37
1252.00,39
1251.00,40
1250.00,42
1249.00,41
1248.00,40
1247.00,39
1246.00,38
1245.00,40
1244.00,43
1243.00,45
1242.00,47
1241.00,48
1240.00,49
1239.00,50
1238.00,50
1237.00,48
1236.00,45
1235.00,42
1234.00,39
1233.00,36
1232.00,34
1231.00,31
1230.00,28
1229.00,24
1228.00,21
1227.00,17
1226.00,15
1225.00,17
1224.00,20
1223.00,23
1222.00,26
1221.00,26
1220.00,26
1219.00,26
1218.00,26
1217.00,26
1216.00,26
1215.00,26
1214.00,26
1213.00,30
1212.00,34
1211.00,38
1210.00,41
1209.00,40
1208.00,37
1207.00,35
1206.00,34
1205.00,41
1204.00,49
1203.00,57
1202.00,63
1201.00,59
1200.00,53
1199.00,47
1198.00,42
1197.00,37
1196.00,32
1195.00,28
1194.00,24
1193.00,27
1192.00,32
1191.00,36
1190.00,41
1189.00,42
1188.00,42
1187.00,43
1186.00,43
1185.00,38
1184.00,32
1183.00,26
1182.00,20
1181.00,18
1180.00,17
1179.00,17
1178.00,16
1177.00,11
1176.00,4
1175.00,-2
1174.00,-9
1173.00,-9
1172.00,-7
1171.00,-5
1170.00,-2
1169.00,-6
1168.00,-13
1167.00,-19
1166.00,-26
1165.00,-24
1164.00,-16
1163.00,-7
1162.00,1
1161.00,5
1160.00,5
1159.00,4
1158.00,4
1157.00,5
1156.00,10
1155.00,15
1154.00,20
1153.00,25
1152.00,29
1151.00,34
1150.00,38
1149.00,39
1148.00,34
1147.00,27
1146.00,21
1145.00,16
1144.00,13
1143.00,10
1142.00,8
1141.00,6
1140.00,12
1139.00,19
1138.00,25
1137.00,30
1136.00,25
1135.00,19
1134.00,12
1133.00,6
1132.00,5
1131.00,6
1130.00,6
1129.00,6
1128.00,2
1127.00,-2
1126.00,-7
1125.00,-11
1124.00,-15
1123.00,-17
1122.00,-20
1121.00,-23
1120.00,-19
1119.00,-11
1118.00,-2
1117.00,6
1116.00,9
1115.00,6
1114.00,2
1113.00,-1
1112.00,-3
1111.00,-1
1110.00,1
1109.00,3
1108.00,5
1107.00,10
1106.00,16
1105.00,21
1104.00,24
1103.00,17
1102.00,8
1101.00,-0
1100.00,-9
1099.00,-16
1098.00,-23
1097.00,-29
1096.00,-36
1095.00,-34
1094.00,-31
1093.00,-27
1092.00,-23
1091.00,-23
1090.00,-24
1089.00,-26
1088.00,-27
1087.00,-29
1086.00,-32
1085.00,-35
1084.00,-38
1083.00,-37
1082.00,-28
1081.00,-19
1080.00,-10
1079.00,-5
1078.00,-7
1077.00,-9
1076.00,-12
1075.00,-14
1074.00,-15
1073.00,-16
1072.00,-17
1071.00,-18
1070.00,-18
1069.00,-18
1068.00,-17
1067.00,-16
1066.00,-16
1065.00,-15
1064.00,-14
1063.00,-14
1062.00,-12
1061.00,-10
1060.00,-9
1059.00,-7
1058.00,-9
1057.00,-17
1056.00,-25
1055.00,-33
1054.00,-40
1053.00,-44
1052.00,-47
1051.00,-51
1050.00,-53
1049.00,-51
1048.00,-48
1047.00,-45
1046.00,-42
1045.00,-42
1044.00,-44
1043.00,-45
1042.00,-47
1041.00,-48
1040.00,-50
1039.00,-51
1038.00,-53
1037.00,-57
1036.00,-65
1035.00,-73
1034.00,-81
1033.00,-85
1032.00,-76
1031.00,-65
1030.00,-53
1029.00,-43
1028.00,-43
1027.00,-44
1026.00,-45
1025.00,-46
1024.00,-48
1023.00,-51
1022.00,-54
1021.00,-57
1020.00,-57
1019.00,-56
1018.00,-54
1017.00,-53
1016.00,-54
1015.00,-61
1014.00,-67
1013.00,-74
1012.00,-80
1011.00,-77
1010.00,-73
1009.00,-69
1008.00,-66
1007.00,-59
1006.00,-50
1005.00,-42
1004.00,-34
1003.00,-32
1002.00,-35
1001.00,-37
1000.00,-40
999.00,-42
998.00,-43
997.00,-45
996.00,-47
995.00,-49
994.00,-55
993.00,-61
992.00,-68
991.00,-73
990.00,-65
989.00,-53
988.00,-41
987.00,-28
986.00,-24
985.00,-25
984.00,-27
983.00,-29
982.00,-29
981.00,-26
980.00,-23
979.00,-20
978.00,-17
977.00,-13
976.00,-10
975.00,-7
974.00,-4
973.00,-5
972.00,-8
971.00,-10
970.00,-13
969.00,-15
968.00,-15
967.00,-15
966.00,-16
965.00,-17
964.00,-20
963.00,-23
962.00,-27
961.00,-30
960.00,-35
959.00,-40
958.00,-44
957.00,-49
956.00,-49
955.00,-45
954.00,-41
953.00,-37
952.00,-33
951.00,-31
950.00,-29
949.00,-27
948.00,-26
947.00,-26
946.00,-27
945.00,-28
944.00,-29
943.00,-28
942.00,-27
941.00,-26
940.00,-25
939.00,-21
938.00,-15
937.00,-9
936.00,-2
935.00,2
934.00,-4
933.00,-11
932.00,-18
931.00,-25
930.00,-32
929.00,-38
928.00,-45
927.00,-51
926.00,-55
925.00,-54
924.00,-53
923.00,-52
922.00,-48
921.00,-30
920.00,-10
919.00,9
918.00,28
917.00,36
916.00,39
915.00,42
914.00,45
913.00,45
912.00,41
911.00,37
910.00,32
909.00,28
908.00,20
907.00,12
906.00,4
905.00,-4
904.00,-10
903.00,-15
902.00,-20
901.00,-26
900.00,-26
899.00,-17
898.00,-9
897.00,-0
896.00,8
895.00,12
894.00,14
893.00,17
892.00,20
891.00,24
890.00,28
889.00,33
888.00,38
887.00,41
886.00,42
885.00,42
884.00,43
883.00,43
882.00,38
881.00,33
880.00,27
879.00,22
878.00,18
877.00,16
876.00,13
875.00,11
874.00,9
873.00,7
872.00,4
871.00,2
870.00,0
869.00,4
868.00,9
867.00,14
866.00,19
865.00,19
864.00,12
863.00,4
862.00,-4
861.00,-10
860.00,-7
859.00,-1
858.00,4
857.00,9
856.00,22
855.00,41
854.00,60
853.00,80
852.00,94
851.00,93
850.00,91
849.00,89
848.00,86
847.00,81
846.00,75
845.00,70
844.00,64
843.00,58
842.00,52
841.00,46
840.00,40
839.00,35
838.00,38
837.00,43
836.00,48
835.00,52
834.00,55
833.00,54
832.00,53
831.00,52
830.00,52
829.00,51
828.00,51
827.00,51
826.00,51
825.00,53
824.00,56
823.00,60
822.00,63
821.00,67
820.00,73
819.00,79
818.00,84
817.00,90
816.00,91
815.00,88
814.00,86
813.00,84
812.00,83
811.00,87
810.00,91
809.00,95
808.00,99
807.00,100
806.00,101
805.00,101
804.00,101
803.00,102
802.00,102
801.00,103
800.00,104
799.00,105
798.00,103
797.00,99
796.00,96
795.00,93
794.00,90
793.00,88
792.00,85
791.00,83
790.00,81
789.00,81
788.00,82
787.00,82
786.00,83
785.00,86
784.00,93
783.00,99
782.00,105
781.00,110
780.00,108
779.00,103
778.00,99
777.00,95
776.00,90
775.00,84
774.00,78
773.00,72
772.00,67
771.00,66
770.00,66
769.00,66
768.00,66
767.00,67
766.00,69
765.00,71
764.00,72
763.00,74
762.00,78
761.00,82
760.00,86
759.00,89
758.00,95
757.00,102
756.00,110
755.00,118
754.00,126
753.00,136
752.00,147
751.00,157
750.00,168
749.00,175
748.00,179
747.00,183
746.00,186
745.00,190
744.00,189
743.00,186
742.00,184
741.00,181
740.00,178
739.00,174
738.00,169
737.00,164
736.00,160
735.00,156
734.00,153
733.00,150
732.00,147
731.00,147
730.00,152
729.00,157
728.00,163
727.00,168
726.00,169
725.00,168
724.00,167
723.00,166
722.00,164
721.00,163
720.00,161
719.00,160
718.00,158
717.00,155
716.00,152
715.00,149
714.00,145
713.00,146
712.00,168
711.00,192
710.00,215
709.00,239
708.00,251
707.00,250
706.00,249
705.00,247
704.00,246
703.00,247
702.00,250
701.00,252
700.00,254
699.00,254
698.00,251
697.00,247
696.00,243
695.00,240
694.00,236
693.00,232
692.00,227
691.00,223
690.00,221
689.00,227
688.00,234
687.00,241
686.00,248
685.00,251
684.00,252
683.00,253
682.00,253
681.00,254
680.00,256
679.00,258
678.00,260
677.00,262
676.00,263
675.00,262
674.00,260
673.00,259
672.00,257
671.00,255
670.00,252
669.00,249
668.00,246
667.00,244
666.00,243
665.00,243
664.00,243
663.00,243
662.00,250
661.00,266
660.00,282
659.00,297
658.00,312
657.00,317
656.00,320
655.00,323
654.00,326
653.00,326
652.00,323
651.00,319
650.00,316
649.00,312
648.00,308
647.00,302
646.00,297
645.00,293
644.00,289
643.00,295
642.00,303
641.00,310
640.00,318
639.00,322
638.00,318
637.00,314
636.00,311
635.00,307
634.00,307
633.00,309
632.00,310
631.00,312
630.00,313
629.00,311
628.00,309
627.00,306
626.00,303
625.00,305
624.00,313
623.00,321
622.00,329
621.00,337
620.00,337
619.00,335
618.00,333
617.00,331
616.00,328
615.00,322
614.00,316
613.00,310
612.00,304
611.00,301
610.00,303
609.00,305
608.00,306
607.00,308
606.00,307
605.00,305
604.00,303
603.00,301
602.00,301
601.00,310
600.00,322
599.00,333
598.00,345
597.00,352
596.00,350
595.00,348
594.00,346
593.00,345
592.00,343
591.00,342
590.00,341
589.00,340
588.00,339
587.00,340
586.00,341
585.00,343
584.00,344
583.00,346
582.00,346
581.00,347
580.00,348
579.00,349
578.00,347
577.00,344
576.00,340
575.00,337
574.00,334
573.00,332
572.00,332
571.00,332
570.00,331
569.00,332
568.00,336
567.00,341
566.00,346
565.00,351
564.00,356
563.00,359
562.00,363
561.00,367
560.00,371
559.00,370
558.00,367
557.00,364
556.00,360
555.00,357
554.00,355
553.00,353
552.00,351
551.00,350
550.00,348
549.00,345
548.00,342
547.00,339
546.00,337
545.00,343
544.00,364
543.00,384
542.00,406
541.00,427
540.00,436
539.00,437
538.00,438
537.00,438
536.00,439
535.00,434
534.00,429
533.00,423
532.00,417
531.00,412
530.00,408
529.00,404
528.00,401
527.00,397
526.00,394
525.00,393
524.00,391
523.00,390
522.00,388
521.00,389
520.00,392
519.00,395
518.00,398
517.00,400
516.00,402
515.00,402
514.00,402
513.00,402
512.00,402
511.00,401
510.00,399
509.00,397
508.00,395
507.00,393
506.00,389
505.00,385
504.00,382
503.00,378
502.00,376
501.00,376
500.00,376
499.00,376
498.00,376
497.00,378
496.00,382
495.00,386
494.00,390
493.00,394
492.00,393
491.00,389
490.00,386
489.00,382
488.00,379
487.00,375
486.00,371
485.00,367
484.00,363
483.00,360
482.00,362
481.00,365
480.00,368
479.00,370
478.00,374
477.00,380
476.00,385
475.00,391
474.00,397
473.00,401
472.00,403
471.00,406
470.00,408
469.00,411
468.00,411
467.00,411
466.00,410
465.00,410
464.00,409
463.00,409
462.00,408
461.00,407
460.00,406
459.00,406
458.00,405
457.00,404
456.00,403
455.00,403
454.00,402
453.00,399
452.00,396
451.00,393
450.00,391
449.00,388
448.00,385
447.00,383
446.00,380
445.00,378
444.00,377
443.00,378
442.00,379
441.00,380
440.00,381
439.00,381
438.00,381
437.00,381
436.00,381
435.00,381
434.00,382
433.00,384
432.00,386
431.00,387
430.00,389
429.00,387
428.00,384
427.00,381
426.00,378
425.00,375
424.00,376
423.00,378
422.00,380
421.00,382
420.00,383
419.00,385
418.00,386
417.00,387
416.00,388
415.00,390
414.00,398
413.00,408
412.00,418
411.00,427
410.00,434
409.00,437
408.00,439
407.00,441
406.00,443
405.00,446
404.00,449
403.00,452
402.00,456
401.00,459
400.00,459
399.00,454
398.00,449
397.00,443
396.00,438
395.00,435
394.00,433
393.00,431
392.00,429
391.00,427
390.00,427
389.00,427
388.00,427
387.00,427
386.00,427
385.00,427
384.00,427
383.00,428
382.00,429
381.00,429
380.00,426
379.00,421
378.00,416
377.00,411
376.00,406
375.00,404
374.00,404
373.00,403
372.00,403
371.00,403
370.00,408
369.00,416
368.00,424
367.00,432
366.00,439
365.00,442
364.00,444
363.00,447
362.00,449
361.00,451
360.00,450
359.00,448
358.00,447
357.00,445
356.00,443
355.00,440
354.00,438
353.00,435
352.00,432
351.00,430
350.00,433
349.00,437
348.00,441
347.00,445
346.00,449
345.00,450
344.00,451
343.00,451
342.00,451
341.00,452
340.00,456
339.00,461
338.00,465
337.00,469
336.00,473
335.00,473
334.00,472
333.00,472
332.00,471
331.00,470
330.00,469
329.00,468
328.00,467
327.00,466
326.00,464
325.00,458
324.00,452
323.00,445
322.00,439
321.00,433
320.00,430
319.00,429
318.00,427
317.00,425
316.00,424
315.00,421
314.00,419
313.00,417
312.00,415
311.00,413
310.00,414
309.00,415
308.00,416
307.00,417
306.00,418
305.00,418
304.00,418
303.00,417
302.00,417
301.00,417
300.00,416
299.00,416
298.00,415
297.00,415
296.00,415
295.00,416
294.00,418
293.00,420
292.00,421
291.00,423
290.00,423
289.00,423
288.00,423
287.00,423
286.00,422
285.00,420
284.00,417
283.00,414
282.00,410
281.00,407
280.00,405
279.00,402
278.00,400
277.00,398
276.00,395
275.00,394
274.00,393
273.00,392
272.00,392
271.00,391
270.00,389
269.00,386
268.00,383
267.00,380
266.00,377
265.00,376
264.00,376
263.00,376
262.00,375
261.00,375
260.00,378
259.00,382
258.00,387
257.00,392
256.00,397
255.00,400
254.00,401
253.00,402
252.00,404
251.00,406
250.00,403
249.00,396
248.00,388
247.00,381
246.00,373
245.00,370
244.00,371
243.00,373
242.00,374
241.00,376
240.00,378
239.00,380
238.00,381
237.00,382
236.00,384
235.00,382
234.00,371
233.00,360
232.00,349
231.00,338
230.00,329
229.00,330
228.00,332
227.00,335
226.00,338
225.00,340
224.00,341
223.00,340
222.00,341
221.00,341
220.00,341
219.00,343
218.00,347
217.00,350
216.00,354
215.00,357
214.00,355
213.00,351
212.00,347
211.00,343
210.00,339
209.00,336
208.00,334
207.00,331
206.00,329
205.00,326
204.00,320
203.00,312
202.00,303
201.00,294
200.00,285
199.00,279
198.00,276
197.00,274
196.00,272
195.00,270
194.00,268
193.00,268
192.00,269
191.00,269
190.00,270
189.00,271
188.00,276
187.00,281
186.00,286
185.00,291
184.00,294
183.00,284
182.00,269
181.00,255
180.00,242
179.00,228
178.00,224
177.00,223
176.00,223
175.00,223
174.00,222
173.00,219
172.00,213
171.00,207
170.00,201
169.00,195
168.00,193
167.00,198
166.00,202
165.00,206
164.00,210
163.00,210
162.00,200
161.00,189
160.00,178
159.00,167
158.00,157
157.00,153
156.00,150
155.00,147
154.00,144
153.00,141
152.00,140
151.00,138
150.00,137
149.00,136
148.00,135
147.00,127
146.00,117
145.00,106
144.00,96
143.00,85
142.00,78
141.00,75
140.00,73
139.00,70
138.00,67
137.00,63
136.00,53
135.00,44
134.00,34
133.00,25
132.00,16
131.00,13
130.00,11
129.00,9
128.00,7
127.00,5
126.00,3
125.00,2
124.00,0
123.00,-1
122.00,-3
121.00,-7
120.00,-13
119.00,-19
118.00,-25
117.00,-31
116.00,-39
115.00,-52
114.00,-66
113.00,-79
112.00,-92
111.00,-105
110.00,-116
109.00,-127
108.00,-138
107.00,-149
106.00,-159
105.00,-167
104.00,-174
103.00,-181
102.00,-188
101.00,-194
100.00,-200
