Created as New Dataset,
Raman Shift / cm-1,INT
3200.00,205
3199.00,162
3198.00,24
3197.00,-14
3196.00,28
3195.00,37
3194.00,37
3193.00,35
3192.00,14
3191.00,-30
3190.00,-16
3189.00,22
3188.00,27
3187.00,37
3186.00,75
3185.00,90
3184.00,83
3183.00,106
3182.00,138
3181.00,151
3180.00,146
3179.00,107
3178.00,67
3177.00,28
3176.00,17
3175.00,16
3174.00,16
3173.00,16
3172.00,16
3171.00,36
3170.00,70
3169.00,77
3168.00,81
3167.00,113
3166.00,138
3165.00,137
3164.00,134
3163.00,130
3162.00,100
3161.00,57
3160.00,-8
3159.00,-58
3158.00,-61
3157.00,-47
3156.00,-15
3155.00,-27
3154.00,-60
3153.00,-93
3152.00,-113
3151.00,-85
3150.00,-134
3149.00,-320
3148.00,-314
3147.00,-141
3146.00,199
3145.00,605
3144.00,1059
3143.00,1284
3142.00,862
3141.00,585
3140.00,577
3139.00,495
3138.00,370
3137.00,250
3136.00,135
3135.00,21
3134.00,-49
3133.00,1
3132.00,21
3131.00,-8
3130.00,-19
3129.00,-22
3128.00,-63
3127.00,-101
3126.00,-38
3125.00,30
3124.00,58
3123.00,93
3122.00,144
3121.00,126
3120.00,49
3119.00,43
3118.00,63
3117.00,47
3116.00,26
3115.00,23
3114.00,23
3113.00,21
3112.00,21
3111.00,22
3110.00,13
3109.00,-3
3108.00,-12
3107.00,-19
3106.00,-43
3105.00,-59
3104.00,-19
3103.00,15
3102.00,17
3101.00,16
3100.00,16
3099.00,39
3098.00,82
3097.00,111
3096.00,129
3095.00,100
3094.00,72
3093.00,159
3092.00,246
3091.00,254
3090.00,234
3089.00,170
3088.00,105
3087.00,40
3086.00,20
3085.00,41
3084.00,48
3083.00,48
3082.00,47
3081.00,47
3080.00,46
3079.00,54
3078.00,106
3077.00,151
3076.00,155
3075.00,149
3074.00,128
3073.00,100
3072.00,61
3071.00,62
3070.00,100
3069.00,125
3068.00,141
3067.00,131
3066.00,112
3065.00,107
3064.00,108
3063.00,123
3062.00,138
3061.00,140
3060.00,140
3059.00,139
3058.00,138
3057.00,138
3056.00,143
3055.00,158
3054.00,150
3053.00,115
3052.00,89
3051.00,71
3050.00,64
3049.00,62
3048.00,37
3047.00,6
3046.00,23
3045.00,52
3044.00,45
3043.00,37
3042.00,90
3041.00,143
3040.00,134
3039.00,125
3038.00,152
3037.00,175
3036.00,176
3035.00,175
3034.00,174
3033.00,173
3032.00,172
3031.00,171
3030.00,170
3029.00,182
3028.00,212
3027.00,195
3026.00,134
3025.00,137
3024.00,197
3023.00,327
3022.00,497
3021.00,538
3020.00,505
3019.00,425
3018.00,329
3017.00,402
3016.00,526
3015.00,431
3014.00,267
3013.00,185
3012.00,129
3011.00,83
3010.00,48
3009.00,64
3008.00,89
3007.00,104
3006.00,120
3005.00,155
3004.00,188
3003.00,192
3002.00,191
3001.00,190
3000.00,188
2999.00,187
2998.00,182
2997.00,157
2996.00,144
2995.00,187
2994.00,214
2993.00,147
2992.00,95
2991.00,133
2990.00,174
2989.00,187
2988.00,193
2987.00,182
2986.00,169
2985.00,157
2984.00,149
2983.00,158
2982.00,165
2981.00,154
2980.00,144
2979.00,143
2978.00,144
2977.00,154
2976.00,174
2975.00,228
2974.00,268
2973.00,239
2972.00,210
2971.00,205
2970.00,204
2969.00,202
2968.00,197
2967.00,176
2966.00,156
2965.00,153
2964.00,153
2963.00,152
2962.00,152
2961.00,160
2960.00,168
2959.00,168
2958.00,169
2957.00,176
2956.00,185
2955.00,194
2954.00,203
2953.00,212
2952.00,220
2951.00,212
2950.00,201
2949.00,197
2948.00,196
2947.00,194
2946.00,193
2945.00,192
2944.00,191
2943.00,190
2942.00,189
2941.00,188
2940.00,187
2939.00,197
2938.00,213
2937.00,230
2936.00,249
2935.00,236
2934.00,187
2933.00,158
2932.00,156
2931.00,155
2930.00,154
2929.00,156
2928.00,163
2927.00,169
2926.00,168
2925.00,165
2924.00,156
2923.00,147
2922.00,145
2921.00,143
2920.00,142
2919.00,140
2918.00,139
2917.00,140
2916.00,152
2915.00,167
2914.00,153
2913.00,128
2912.00,134
2911.00,159
2910.00,183
2909.00,207
2908.00,211
2907.00,192
2906.00,177
2905.00,167
2904.00,153
2903.00,128
2902.00,109
2901.00,107
2900.00,104
2899.00,96
2898.00,90
2897.00,101
2896.00,115
2895.00,117
2894.00,117
2893.00,139
2892.00,169
2891.00,184
2890.00,191
2889.00,193
2888.00,192
2887.00,190
2886.00,189
2885.00,190
2884.00,196
2883.00,200
2882.00,199
2881.00,192
2880.00,151
2879.00,111
2878.00,103
2877.00,103
2876.00,117
2875.00,136
2874.00,138
2873.00,131
2872.00,116
2871.00,95
2870.00,88
2869.00,108
2868.00,122
2867.00,121
2866.00,123
2865.00,134
2864.00,146
2863.00,147
2862.00,147
2861.00,166
2860.00,190
2859.00,198
2858.00,197
2857.00,193
2856.00,185
2855.00,181
2854.00,187
2853.00,194
2852.00,205
2851.00,214
2850.00,209
2849.00,201
2848.00,194
2847.00,187
2846.00,191
2845.00,202
2844.00,201
2843.00,187
2842.00,175
2841.00,167
2840.00,165
2839.00,180
2838.00,195
2837.00,196
2836.00,193
2835.00,178
2834.00,160
2833.00,155
2832.00,160
2831.00,163
2830.00,162
2829.00,161
2828.00,160
2827.00,158
2826.00,152
2825.00,146
2824.00,161
2823.00,182
2822.00,178
2821.00,160
2820.00,147
2819.00,140
2818.00,141
2817.00,161
2816.00,179
2815.00,180
2814.00,178
2813.00,169
2812.00,158
2811.00,149
2810.00,142
2809.00,140
2808.00,144
2807.00,147
2806.00,145
2805.00,143
2804.00,138
2803.00,131
2802.00,129
2801.00,128
2800.00,130
2799.00,134
2798.00,140
2797.00,154
2796.00,165
2795.00,161
2794.00,156
2793.00,173
2792.00,197
2791.00,206
2790.00,205
2789.00,201
2788.00,195
2787.00,193
2786.00,209
2785.00,225
2784.00,228
2783.00,227
2782.00,223
2781.00,218
2780.00,214
2779.00,212
2778.00,212
2777.00,215
2776.00,217
2775.00,205
2774.00,189
2773.00,182
2772.00,180
2771.00,180
2770.00,183
2769.00,183
2768.00,170
2767.00,156
2766.00,151
2765.00,150
2764.00,149
2763.00,148
2762.00,148
2761.00,152
2760.00,153
2759.00,145
2758.00,136
2757.00,138
2756.00,145
2755.00,149
2754.00,147
2753.00,147
2752.00,150
2751.00,154
2750.00,167
2749.00,182
2748.00,195
2747.00,206
2746.00,211
2745.00,206
2744.00,204
2743.00,220
2742.00,238
2741.00,232
2740.00,215
2739.00,206
2738.00,209
2737.00,209
2736.00,204
2735.00,197
2734.00,177
2733.00,151
2732.00,143
2731.00,150
2730.00,154
2729.00,154
2728.00,153
2727.00,151
2726.00,150
2725.00,166
2724.00,195
2723.00,213
2722.00,205
2721.00,197
2720.00,201
2719.00,207
2718.00,209
2717.00,208
2716.00,204
2715.00,195
2714.00,186
2713.00,177
2712.00,168
2711.00,164
2710.00,162
2709.00,165
2708.00,178
2707.00,190
2706.00,191
2705.00,190
2704.00,191
2703.00,193
2702.00,198
2701.00,207
2700.00,216
2699.00,216
2698.00,214
2697.00,212
2696.00,210
2695.00,206
2694.00,197
2693.00,189
2692.00,187
2691.00,186
2690.00,185
2689.00,184
2688.00,183
2687.00,181
2686.00,179
2685.00,175
2684.00,171
2683.00,174
2682.00,185
2681.00,195
2680.00,195
2679.00,194
2678.00,190
2677.00,186
2676.00,182
2675.00,177
2674.00,173
2673.00,171
2672.00,170
2671.00,166
2670.00,162
2669.00,159
2668.00,160
2667.00,162
2666.00,164
2665.00,166
2664.00,168
2663.00,170
2662.00,173
2661.00,180
2660.00,189
2659.00,203
2658.00,220
2657.00,229
2656.00,214
2655.00,199
2654.00,182
2653.00,165
2652.00,156
2651.00,158
2650.00,161
2649.00,168
2648.00,174
2647.00,178
2646.00,180
2645.00,184
2644.00,194
2643.00,205
2642.00,215
2641.00,225
2640.00,226
2639.00,212
2638.00,200
2637.00,194
2636.00,189
2635.00,187
2634.00,188
2633.00,189
2632.00,187
2631.00,185
2630.00,183
2629.00,182
2628.00,180
2627.00,179
2626.00,178
2625.00,178
2624.00,180
2623.00,182
2622.00,186
2621.00,188
2620.00,183
2619.00,176
2618.00,171
2617.00,166
2616.00,163
2615.00,164
2614.00,165
2613.00,162
2612.00,155
2611.00,147
2610.00,139
2609.00,130
2608.00,126
2607.00,124
2606.00,124
2605.00,125
2604.00,126
2603.00,133
2602.00,142
2601.00,150
2600.00,156
2599.00,162
2598.00,168
2597.00,174
2596.00,179
2595.00,182
2594.00,184
2593.00,181
2592.00,176
2591.00,173
2590.00,172
2589.00,170
2588.00,167
2587.00,164
2586.00,157
2585.00,145
2584.00,135
2583.00,130
2582.00,126
2581.00,130
2580.00,141
2579.00,147
2578.00,133
2577.00,118
2576.00,102
2575.00,86
2574.00,79
2573.00,106
2572.00,138
2571.00,150
2570.00,151
2569.00,151
2568.00,143
2567.00,134
2566.00,133
2565.00,138
2564.00,146
2563.00,161
2562.00,177
2561.00,183
2560.00,181
2559.00,176
2558.00,154
2557.00,130
2556.00,117
2555.00,115
2554.00,112
2553.00,114
2552.00,115
2551.00,115
2550.00,114
2549.00,114
2548.00,121
2547.00,130
2546.00,137
2545.00,141
2544.00,145
2543.00,145
2542.00,143
2541.00,140
2540.00,134
2539.00,129
2538.00,130
2537.00,134
2536.00,136
2535.00,136
2534.00,136
2533.00,135
2532.00,134
2531.00,134
2530.00,137
2529.00,139
2528.00,140
2527.00,141
2526.00,141
2525.00,138
2524.00,135
2523.00,129
2522.00,121
2521.00,117
2520.00,127
2519.00,138
2518.00,143
2517.00,141
2516.00,139
2515.00,138
2514.00,136
2513.00,135
2512.00,134
2511.00,132
2510.00,129
2509.00,126
2508.00,125
2507.00,131
2506.00,137
2505.00,138
2504.00,136
2503.00,135
2502.00,135
2501.00,135
2500.00,135
2499.00,134
2498.00,132
2497.00,126
2496.00,119
2495.00,114
2494.00,113
2493.00,111
2492.00,105
2491.00,96
2490.00,88
2489.00,77
2488.00,66
2487.00,64
2486.00,67
2485.00,71
2484.00,77
2483.00,83
2482.00,84
2481.00,79
2480.00,74
2479.00,81
2478.00,92
2477.00,101
2476.00,103
2475.00,106
2474.00,103
2473.00,98
2472.00,94
2471.00,97
2470.00,100
2469.00,103
2468.00,103
2467.00,103
2466.00,101
2465.00,98
2464.00,94
2463.00,86
2462.00,78
2461.00,73
2460.00,70
2459.00,68
2458.00,68
2457.00,68
2456.00,69
2455.00,69
2454.00,69
2453.00,74
2452.00,83
2451.00,90
2450.00,90
2449.00,89
2448.00,89
2447.00,90
2446.00,91
2445.00,89
2444.00,86
2443.00,83
2442.00,81
2441.00,80
2440.00,79
2439.00,79
2438.00,80
2437.00,80
2436.00,80
2435.00,83
2434.00,95
2433.00,107
2432.00,106
2431.00,88
2430.00,70
2429.00,65
2428.00,66
2427.00,67
2426.00,70
2425.00,73
2424.00,72
2423.00,66
2422.00,61
2421.00,58
2420.00,57
2419.00,56
2418.00,59
2417.00,62
2416.00,68
2415.00,77
2414.00,87
2413.00,100
2412.00,115
2411.00,126
2410.00,117
2409.00,106
2408.00,100
2407.00,101
2406.00,103
2405.00,111
2404.00,123
2403.00,131
2402.00,120
2401.00,106
2400.00,95
2399.00,94
2398.00,93
2397.00,92
2396.00,92
2395.00,92
2394.00,90
2393.00,89
2392.00,85
2391.00,77
2390.00,68
2389.00,67
2388.00,73
2387.00,79
2386.00,81
2385.00,81
2384.00,81
2383.00,77
2382.00,72
2381.00,68
2380.00,66
2379.00,64
2378.00,64
2377.00,65
2376.00,66
2375.00,63
2374.00,58
2373.00,57
2372.00,64
2371.00,71
2370.00,74
2369.00,72
2368.00,71
2367.00,70
2366.00,69
2365.00,67
2364.00,59
2363.00,50
2362.00,45
2361.00,49
2360.00,53
2359.00,56
2358.00,59
2357.00,61
2356.00,63
2355.00,64
2354.00,65
2353.00,62
2352.00,59
2351.00,58
2350.00,63
2349.00,67
2348.00,68
2347.00,67
2346.00,65
2345.00,63
2344.00,61
2343.00,59
2342.00,54
2341.00,49
2340.00,42
2339.00,34
2338.00,25
2337.00,19
2336.00,16
2335.00,14
2334.00,13
2333.00,13
2332.00,14
2331.00,20
2330.00,28
2329.00,35
2328.00,40
2327.00,44
2326.00,47
2325.00,46
2324.00,45
2323.00,44
2322.00,43
2321.00,42
2320.00,40
2319.00,38
2318.00,36
2317.00,35
2316.00,34
2315.00,37
2314.00,47
2313.00,58
2312.00,64
2311.00,64
2310.00,64
2309.00,63
2308.00,60
2307.00,57
2306.00,54
2305.00,52
2304.00,49
2303.00,47
2302.00,46
2301.00,45
2300.00,45
2299.00,45
2298.00,45
2297.00,44
2296.00,43
2295.00,45
2294.00,50
2293.00,54
2292.00,55
2291.00,53
2290.00,52
2289.00,51
2288.00,51
2287.00,50
2286.00,49
2285.00,48
2284.00,46
2283.00,40
2282.00,33
2281.00,29
2280.00,27
2279.00,24
2278.00,20
2277.00,16
2276.00,11
2275.00,4
2274.00,-4
2273.00,-11
2272.00,-13
2271.00,-14
2270.00,-14
2269.00,-13
2268.00,-12
2267.00,-12
2266.00,-14
2265.00,-16
2264.00,-17
2263.00,-18
2262.00,-18
2261.00,-17
2260.00,-14
2259.00,-11
2258.00,-4
2257.00,5
2256.00,11
2255.00,4
2254.00,-6
2253.00,-14
2252.00,-7
2251.00,1
2250.00,7
2249.00,6
2248.00,5
2247.00,2
2246.00,-5
2245.00,-11
2244.00,-15
2243.00,-17
2242.00,-19
2241.00,-22
2240.00,-27
2239.00,-32
2238.00,-33
2237.00,-33
2236.00,-33
2235.00,-34
2234.00,-36
2233.00,-39
2232.00,-42
2231.00,-45
2230.00,-47
2229.00,-45
2228.00,-43
2227.00,-40
2226.00,-35
2225.00,-29
2224.00,-26
2223.00,-27
2222.00,-29
2221.00,-32
2220.00,-35
2219.00,-39
2218.00,-40
2217.00,-40
2216.00,-39
2215.00,-37
2214.00,-35
2213.00,-32
2212.00,-33
2211.00,-36
2210.00,-39
2209.00,-40
2208.00,-41
2207.00,-42
2206.00,-43
2205.00,-44
2204.00,-45
2203.00,-45
2202.00,-45
2201.00,-46
2200.00,-48
2199.00,-51
2198.00,-53
2197.00,-53
2196.00,-53
2195.00,-52
2194.00,-47
2193.00,-42
2192.00,-37
2191.00,-34
2190.00,-31
2189.00,-25
2188.00,-16
2187.00,-6
2186.00,4
2185.00,14
2184.00,24
2183.00,29
2182.00,28
2181.00,27
2180.00,26
2179.00,25
2178.00,24
2177.00,19
2176.00,11
2175.00,3
2174.00,-0
2173.00,-0
2172.00,0
2171.00,-6
2170.00,-17
2169.00,-26
2168.00,-30
2167.00,-31
2166.00,-32
2165.00,-32
2164.00,-32
2163.00,-32
2162.00,-32
2161.00,-31
2160.00,-31
2159.00,-34
2158.00,-38
2157.00,-41
2156.00,-42
2155.00,-43
2154.00,-44
2153.00,-45
2152.00,-47
2151.00,-48
2150.00,-45
2149.00,-41
2148.00,-37
2147.00,-35
2146.00,-34
2145.00,-33
2144.00,-25
2143.00,-16
2142.00,-8
2141.00,-9
2140.00,-11
2139.00,-12
2138.00,-14
2137.00,-15
2136.00,-17
2135.00,-18
2134.00,-20
2133.00,-22
2132.00,-23
2131.00,-25
2130.00,-26
2129.00,-21
2128.00,-15
2127.00,-9
2126.00,-11
2125.00,-13
2124.00,-15
2123.00,-16
2122.00,-17
2121.00,-18
2120.00,-17
2119.00,-14
2118.00,-13
2117.00,-13
2116.00,-14
2115.00,-15
2114.00,-14
2113.00,-12
2112.00,-11
2111.00,-12
2110.00,-14
2109.00,-16
2108.00,-15
2107.00,-14
2106.00,-13
2105.00,-13
2104.00,-14
2103.00,-15
2102.00,-14
2101.00,-13
2100.00,-11
2099.00,-8
2098.00,-4
2097.00,-0
2096.00,-2
2095.00,-5
2094.00,-8
2093.00,-11
2092.00,-14
2091.00,-16
2090.00,-18
2089.00,-20
2088.00,-21
2087.00,-23
2086.00,-26
2085.00,-28
2084.00,-32
2083.00,-38
2082.00,-43
2081.00,-46
2080.00,-47
2079.00,-48
2078.00,-43
2077.00,-34
2076.00,-24
2075.00,-18
2074.00,-15
2073.00,-12
2072.00,-10
2071.00,-9
2070.00,-8
2069.00,-5
2068.00,3
2067.00,10
2066.00,15
2065.00,12
2064.00,9
2063.00,6
2062.00,4
2061.00,2
2060.00,-1
2059.00,-2
2058.00,-4
2057.00,-6
2056.00,-7
2055.00,-8
2054.00,-8
2053.00,-4
2052.00,2
2051.00,7
2050.00,9
2049.00,9
2048.00,10
2047.00,14
2046.00,19
2045.00,24
2044.00,23
2043.00,20
2042.00,17
2041.00,15
2040.00,13
2039.00,11
2038.00,10
2037.00,10
2036.00,9
2035.00,9
2034.00,9
2033.00,9
2032.00,11
2031.00,17
2030.00,24
2029.00,30
2028.00,36
2027.00,41
2026.00,46
2025.00,47
2024.00,47
2023.00,47
2022.00,41
2021.00,34
2020.00,27
2019.00,26
2018.00,27
2017.00,28
2016.00,27
2015.00,25
2014.00,23
2013.00,21
2012.00,20
2011.00,18
2010.00,17
2009.00,18
2008.00,18
2007.00,19
2006.00,20
2005.00,22
2004.00,26
2003.00,35
2002.00,45
2001.00,54
2000.00,58
1999.00,61
1998.00,63
1997.00,62
1996.00,61
1995.00,59
1994.00,63
1993.00,69
1992.00,75
1991.00,80
1990.00,86
1989.00,91
1988.00,91
1987.00,82
1986.00,73
1985.00,67
1984.00,71
1983.00,75
1982.00,78
1981.00,76
1980.00,73
1979.00,71
1978.00,71
1977.00,72
1976.00,73
1975.00,78
1974.00,84
1973.00,90
1972.00,97
1971.00,105
1970.00,112
1969.00,116
1968.00,113
1967.00,111
1966.00,109
1965.00,109
1964.00,109
1963.00,109
1962.00,108
1961.00,108
1960.00,108
1959.00,113
1958.00,120
1957.00,127
1956.00,131
1955.00,133
1954.00,136
1953.00,137
1952.00,137
1951.00,137
1950.00,137
1949.00,137
1948.00,136
1947.00,135
1946.00,134
1945.00,132
1944.00,131
1943.00,132
1942.00,135
1941.00,137
1940.00,137
1939.00,136
1938.00,135
1937.00,134
1936.00,133
1935.00,132
1934.00,131
1933.00,129
1932.00,127
1931.00,125
1930.00,130
1929.00,135
1928.00,141
1927.00,142
1926.00,141
1925.00,140
1924.00,140
1923.00,141
1922.00,142
1921.00,143
1920.00,145
1919.00,147
1918.00,149
1917.00,153
1916.00,156
1915.00,159
1914.00,159
1913.00,158
1912.00,156
1911.00,155
1910.00,154
1909.00,152
1908.00,151
1907.00,149
1906.00,147
1905.00,146
1904.00,146
1903.00,146
1902.00,147
1901.00,156
1900.00,169
1899.00,182
1898.00,178
1897.00,162
1896.00,146
1895.00,140
1894.00,153
1893.00,166
1892.00,179
1891.00,183
1890.00,186
1889.00,189
1888.00,188
1887.00,186
1886.00,184
1885.00,181
1884.00,176
1883.00,171
1882.00,168
1881.00,171
1880.00,173
1879.00,175
1878.00,174
1877.00,171
1876.00,169
1875.00,169
1874.00,170
1873.00,171
1872.00,173
1871.00,174
1870.00,176
1869.00,177
1868.00,176
1867.00,176
1866.00,175
1865.00,174
1864.00,172
1863.00,170
1862.00,168
1861.00,166
1860.00,164
1859.00,166
1858.00,178
1857.00,191
1856.00,202
1855.00,203
1854.00,201
1853.00,199
1852.00,196
1851.00,194
1850.00,191
1849.00,190
1848.00,194
1847.00,198
1846.00,201
1845.00,201
1844.00,200
1843.00,200
1842.00,199
1841.00,197
1840.00,196
1839.00,196
1838.00,198
1837.00,199
1836.00,200
1835.00,200
1834.00,199
1833.00,198
1832.00,199
1831.00,201
1830.00,204
1829.00,202
1828.00,194
1827.00,185
1826.00,179
1825.00,181
1824.00,185
1823.00,189
1822.00,189
1821.00,188
1820.00,187
1819.00,187
1818.00,191
1817.00,196
1816.00,199
1815.00,195
1814.00,190
1813.00,186
1812.00,182
1811.00,179
1810.00,176
1809.00,175
1808.00,180
1807.00,185
1806.00,190
1805.00,186
1804.00,180
1803.00,174
1802.00,171
1801.00,169
1800.00,167
1799.00,168
1798.00,178
1797.00,190
1796.00,200
1795.00,202
1794.00,202
1793.00,201
1792.00,201
1791.00,201
1790.00,201
1789.00,201
1788.00,203
1787.00,204
1786.00,206
1785.00,205
1784.00,202
1783.00,200
1782.00,198
1781.00,196
1780.00,194
1779.00,193
1778.00,194
1777.00,196
1776.00,198
1775.00,200
1774.00,203
1773.00,206
1772.00,208
1771.00,207
1770.00,206
1769.00,206
1768.00,210
1767.00,215
1766.00,221
1765.00,225
1764.00,226
1763.00,226
1762.00,226
1761.00,226
1760.00,226
1759.00,226
1758.00,228
1757.00,232
1756.00,236
1755.00,239
1754.00,238
1753.00,236
1752.00,235
1751.00,235
1750.00,235
1749.00,236
1748.00,236
1747.00,236
1746.00,236
1745.00,236
1744.00,235
1743.00,234
1742.00,233
1741.00,232
1740.00,231
1739.00,229
1738.00,228
1737.00,229
1736.00,229
1735.00,230
1734.00,233
1733.00,238
1732.00,242
1731.00,246
1730.00,245
1729.00,244
1728.00,243
1727.00,247
1726.00,253
1725.00,259
1724.00,267
1723.00,276
1722.00,286
1721.00,296
1720.00,297
1719.00,295
1718.00,294
1717.00,293
1716.00,294
1715.00,294
1714.00,296
1713.00,299
1712.00,304
1711.00,308
1710.00,312
1709.00,313
1708.00,315
1707.00,316
1706.00,315
1705.00,314
1704.00,313
1703.00,312
1702.00,311
1701.00,309
1700.00,308
1699.00,308
1698.00,308
1697.00,308
1696.00,308
1695.00,308
1694.00,308
1693.00,308
1692.00,308
1691.00,309
1690.00,309
1689.00,310
1688.00,313
1687.00,315
1686.00,317
1685.00,321
1684.00,324
1683.00,327
1682.00,328
1681.00,326
1680.00,323
1679.00,322
1678.00,322
1677.00,323
1676.00,324
1675.00,323
1674.00,322
1673.00,320
1672.00,319
1671.00,317
1670.00,316
1669.00,315
1668.00,316
1667.00,319
1666.00,322
1665.00,326
1664.00,327
1663.00,329
1662.00,331
1661.00,334
1660.00,337
1659.00,341
1658.00,345
1657.00,344
1656.00,344
1655.00,343
1654.00,343
1653.00,343
1652.00,344
1651.00,344
1650.00,345
1649.00,346
1648.00,347
1647.00,347
1646.00,347
1645.00,346
1644.00,345
1643.00,344
1642.00,342
1641.00,340
1640.00,341
1639.00,348
1638.00,354
1637.00,361
1636.00,362
1635.00,360
1634.00,359
1633.00,358
1632.00,358
1631.00,358
1630.00,359
1629.00,362
1628.00,366
1627.00,371
1626.00,375
1625.00,379
1624.00,382
1623.00,385
1622.00,386
1621.00,387
1620.00,388
1619.00,388
1618.00,386
1617.00,383
1616.00,381
1615.00,380
1614.00,382
1613.00,383
1612.00,385
1611.00,386
1610.00,387
1609.00,388
1608.00,389
1607.00,389
1606.00,390
1605.00,391
1604.00,392
1603.00,392
1602.00,392
1601.00,393
1600.00,394
1599.00,395
1598.00,395
1597.00,395
1596.00,392
1595.00,390
1594.00,388
1593.00,386
1592.00,384
1591.00,381
1590.00,382
1589.00,387
1588.00,393
1587.00,398
1586.00,397
1585.00,393
1584.00,389
1583.00,386
1582.00,385
1581.00,385
1580.00,385
1579.00,385
1578.00,386
1577.00,386
1576.00,387
1575.00,387
1574.00,388
1573.00,389
1572.00,391
1571.00,395
1570.00,400
1569.00,404
1568.00,405
1567.00,405
1566.00,405
1565.00,405
1564.00,403
1563.00,400
1562.00,398
1561.00,396
1560.00,394
1559.00,393
1558.00,392
1557.00,395
1556.00,399
1555.00,402
1554.00,408
1553.00,418
1552.00,428
1551.00,439
1550.00,445
1549.00,448
1548.00,451
1547.00,453
1546.00,457
1545.00,460
1544.00,464
1543.00,467
1542.00,466
1541.00,464
1540.00,463
1539.00,462
1538.00,461
1537.00,461
1536.00,460
1535.00,459
1534.00,459
1533.00,458
1532.00,458
1531.00,456
1530.00,455
1529.00,454
1528.00,452
1527.00,448
1526.00,445
1525.00,441
1524.00,440
1523.00,438
1522.00,436
1521.00,435
1520.00,433
1519.00,431
1518.00,430
1517.00,428
1516.00,427
1515.00,426
1514.00,424
1513.00,423
1512.00,421
1511.00,420
1510.00,419
1509.00,421
1508.00,423
1507.00,425
1506.00,428
1505.00,433
1504.00,438
1503.00,442
1502.00,440
1501.00,435
1500.00,430
1499.00,427
1498.00,427
1497.00,427
1496.00,427
1495.00,427
1494.00,429
1493.00,430
1492.00,431
1491.00,429
1490.00,425
1489.00,422
1488.00,418
1487.00,418
1486.00,418
1485.00,418
1484.00,418
1483.00,417
1482.00,416
1481.00,414
1480.00,413
1479.00,411
1478.00,410
1477.00,408
1476.00,407
1475.00,406
1474.00,405
1473.00,405
1472.00,406
1471.00,407
1470.00,408
1469.00,409
1468.00,409
1467.00,409
1466.00,409
1465.00,412
1464.00,417
1463.00,421
1462.00,425
1461.00,426
1460.00,426
1459.00,426
1458.00,426
1457.00,427
1456.00,427
1455.00,427
1454.00,426
1453.00,425
1452.00,424
1451.00,423
1450.00,421
1449.00,419
1448.00,416
1447.00,414
1446.00,413
1445.00,413
1444.00,412
1443.00,412
1442.00,412
1441.00,412
1440.00,412
1439.00,413
1438.00,414
1437.00,415
1436.00,416
1435.00,423
1434.00,433
1433.00,443
1432.00,452
1431.00,452
1430.00,450
1429.00,448
1428.00,446
1427.00,448
1426.00,449
1425.00,451
1424.00,452
1423.00,453
1422.00,453
1421.00,454
1420.00,454
1419.00,455
1418.00,456
1417.00,457
1416.00,457
1415.00,456
1414.00,455
1413.00,455
1412.00,460
1411.00,467
1410.00,474
1409.00,480
1408.00,483
1407.00,486
1406.00,488
1405.00,491
1404.00,492
1403.00,494
1402.00,496
1401.00,497
1400.00,499
1399.00,500
1398.00,501
1397.00,501
1396.00,500
1395.00,499
1394.00,498
1393.00,497
1392.00,496
1391.00,495
1390.00,496
1389.00,503
1388.00,510
1387.00,517
1386.00,522
1385.00,523
1384.00,524
1383.00,525
1382.00,525
1381.00,523
1380.00,522
1379.00,520
1378.00,519
1377.00,517
1376.00,516
1375.00,515
1374.00,514
1373.00,513
1372.00,512
1371.00,511
1370.00,510
1369.00,510
1368.00,509
1367.00,508
1366.00,507
1365.00,506
1364.00,505
1363.00,505
1362.00,505
1361.00,506
1360.00,507
1359.00,506
1358.00,504
1357.00,501
1356.00,499
1355.00,498
1354.00,499
1353.00,499
1352.00,500
1351.00,502
1350.00,505
1349.00,507
1348.00,510
1347.00,510
1346.00,510
1345.00,509
1344.00,508
1343.00,499
1342.00,490
1341.00,481
1340.00,474
1339.00,472
1338.00,471
1337.00,469
1336.00,467
1335.00,461
1334.00,456
1333.00,451
1332.00,445
1331.00,439
1330.00,433
1329.00,427
1328.00,423
1327.00,422
1326.00,420
1325.00,418
1324.00,412
1323.00,403
1322.00,394
1321.00,385
1320.00,377
1319.00,369
1318.00,362
1317.00,354
1316.00,347
1315.00,340
1314.00,334
1313.00,328
1312.00,325
1311.00,323
1310.00,321
1309.00,319
1308.00,315
1307.00,311
1306.00,307
1305.00,303
1304.00,302
1303.00,300
1302.00,299
1301.00,297
1300.00,295
1299.00,293
1298.00,291
1297.00,290
1296.00,289
1295.00,289
1294.00,288
1293.00,283
1292.00,273
1291.00,262
1290.00,251
1289.00,245
1288.00,245
1287.00,245
1286.00,244
1285.00,242
1284.00,239
1283.00,236
1282.00,233
1281.00,229
1280.00,224
1279.00,218
1278.00,213
1277.00,207
1276.00,200
1275.00,194
1274.00,187
1273.00,182
1272.00,177
1271.00,172
1270.00,167
1269.00,163
1268.00,158
1267.00,154
1266.00,150
1265.00,148
1264.00,148
1263.00,148
1262.00,148
1261.00,143
1260.00,137
1259.00,131
1258.00,126
1257.00,123
1256.00,120
1255.00,118
1254.00,116
1253.00,115
1252.00,115
1251.00,114
1250.00,113
1249.00,107
1248.00,100
1247.00,94
1246.00,88
1245.00,90
1244.00,95
1243.00,99
1242.00,103
1241.00,101
1240.00,98
1239.00,96
1238.00,93
1237.00,92
1236.00,91
1235.00,89
1234.00,88
1233.00,85
1232.00,83
1231.00,80
1230.00,79
1229.00,82
1228.00,86
1227.00,90
1226.00,94
1225.00,95
1224.00,96
1223.00,96
1222.00,96
1221.00,93
1220.00,88
1219.00,84
1218.00,80
1217.00,80
1216.00,80
1215.00,79
1214.00,79
1213.00,76
1212.00,73
1211.00,70
1210.00,68
1209.00,67
1208.00,67
1207.00,67
1206.00,67
1205.00,67
1204.00,67
1203.00,67
1202.00,66
1201.00,64
1200.00,62
1199.00,60
1198.00,58
1197.00,59
1196.00,61
1195.00,63
1194.00,64
1193.00,65
1192.00,65
1191.00,65
1190.00,65
1189.00,62
1188.00,59
1187.00,56
1186.00,53
1185.00,51
1184.00,50
1183.00,48
1182.00,47
1181.00,46
1180.00,44
1179.00,43
1178.00,42
1177.00,41
1176.00,40
1175.00,40
1174.00,39
1173.00,38
1172.00,38
1171.00,37
1170.00,37
1169.00,36
1168.00,35
1167.00,35
1166.00,34
1165.00,32
1164.00,30
1163.00,27
1162.00,25
1161.00,23
1160.00,21
1159.00,20
1158.00,18
1157.00,17
1156.00,17
1155.00,17
1154.00,17
1153.00,17
1152.00,17
1151.00,18
1150.00,18
1149.00,18
1148.00,17
1147.00,15
1146.00,14
1145.00,13
1144.00,13
1143.00,12
1142.00,12
1141.00,12
1140.00,13
1139.00,15
1138.00,16
1137.00,17
1136.00,17
1135.00,17
1134.00,17
1133.00,17
1132.00,16
1131.00,15
1130.00,14
1129.00,13
1128.00,11
1127.00,10
1126.00,8
1125.00,7
1124.00,9
1123.00,12
1122.00,15
1121.00,18
1120.00,20
1119.00,20
1118.00,20
1117.00,20
1116.00,20
1115.00,19
1114.00,19
1113.00,18
1112.00,18
1111.00,18
1110.00,19
1109.00,20
1108.00,21
1107.00,22
1106.00,23
1105.00,24
1104.00,25
1103.00,24
1102.00,23
1101.00,22
1100.00,21
1099.00,20
1098.00,19
1097.00,18
1096.00,17
1095.00,15
1094.00,12
1093.00,9
1092.00,7
1091.00,6
1090.00,6
1089.00,6
1088.00,6
1087.00,5
1086.00,3
1085.00,1
1084.00,-1
1083.00,-2
1082.00,-4
1081.00,-6
1080.00,-7
1079.00,-9
1078.00,-10
1077.00,-12
1076.00,-14
1075.00,-15
1074.00,-14
1073.00,-12
1072.00,-11
1071.00,-9
1070.00,-9
1069.00,-10
1068.00,-11
1067.00,-12
1066.00,-13
1065.00,-14
1064.00,-15
1063.00,-16
1062.00,-17
1061.00,-17
1060.00,-17
1059.00,-17
1058.00,-17
1057.00,-18
1056.00,-18
1055.00,-18
1054.00,-18
1053.00,-19
1052.00,-19
1051.00,-19
1050.00,-20
1049.00,-20
1048.00,-20
1047.00,-19
1046.00,-19
1045.00,-19
1044.00,-19
1043.00,-18
1042.00,-18
1041.00,-19
1040.00,-22
1039.00,-25
1038.00,-28
1037.00,-29
1036.00,-30
1035.00,-31
1034.00,-31
1033.00,-32
1032.00,-31
1031.00,-30
1030.00,-29
1029.00,-29
1028.00,-29
1027.00,-29
1026.00,-29
1025.00,-29
1024.00,-31
1023.00,-34
1022.00,-38
1021.00,-41
1020.00,-42
1019.00,-42
1018.00,-42
1017.00,-42
1016.00,-41
1015.00,-40
1014.00,-38
1013.00,-36
1012.00,-35
1011.00,-35
1010.00,-36
1009.00,-36
1008.00,-36
1007.00,-36
1006.00,-35
1005.00,-35
1004.00,-34
1003.00,-34
1002.00,-34
1001.00,-34
1000.00,-34
999.00,-34
998.00,-34
997.00,-34
996.00,-34
995.00,-34
994.00,-35
993.00,-37
992.00,-39
991.00,-40
990.00,-40
989.00,-39
988.00,-38
987.00,-37
986.00,-37
985.00,-37
984.00,-37
983.00,-37
982.00,-36
981.00,-33
980.00,-30
979.00,-26
978.00,-24
977.00,-23
976.00,-24
975.00,-24
974.00,-24
973.00,-24
972.00,-23
971.00,-23
970.00,-22
969.00,-21
968.00,-19
967.00,-17
966.00,-15
965.00,-14
964.00,-13
963.00,-13
962.00,-13
961.00,-13
960.00,-13
959.00,-13
958.00,-13
957.00,-13
956.00,-13
955.00,-13
954.00,-13
953.00,-12
952.00,-12
951.00,-12
950.00,-12
949.00,-12
948.00,-11
947.00,-11
946.00,-11
945.00,-11
944.00,-11
943.00,-11
942.00,-11
941.00,-11
940.00,-10
939.00,-10
938.00,-9
937.00,-7
936.00,-6
935.00,-4
934.00,-3
933.00,-2
932.00,-1
931.00,-0
930.00,-1
929.00,-2
928.00,-4
927.00,-5
926.00,-5
925.00,-4
924.00,-3
923.00,-2
922.00,-1
921.00,-0
920.00,0
919.00,0
918.00,1
917.00,1
916.00,2
915.00,3
914.00,3
913.00,4
912.00,3
911.00,3
910.00,3
909.00,3
908.00,3
907.00,3
906.00,3
905.00,3
904.00,3
903.00,3
902.00,3
901.00,3
900.00,3
899.00,4
898.00,4
897.00,5
896.00,5
895.00,6
894.00,7
893.00,7
892.00,8
891.00,9
890.00,10
889.00,12
888.00,13
887.00,14
886.00,15
885.00,15
884.00,16
883.00,16
882.00,16
881.00,16
880.00,16
879.00,16
878.00,15
877.00,15
876.00,15
875.00,15
874.00,15
873.00,16
872.00,16
871.00,17
870.00,17
869.00,19
868.00,21
867.00,23
866.00,25
865.00,26
864.00,26
863.00,25
862.00,24
861.00,24
860.00,26
859.00,29
858.00,32
857.00,34
856.00,36
855.00,36
854.00,36
853.00,37
852.00,37
851.00,38
850.00,40
849.00,41
848.00,42
847.00,44
846.00,45
845.00,46
844.00,47
843.00,48
842.00,48
841.00,47
840.00,47
839.00,46
838.00,47
837.00,48
836.00,48
835.00,49
834.00,49
833.00,49
832.00,49
831.00,49
830.00,49
829.00,51
828.00,52
827.00,53
826.00,54
825.00,54
824.00,53
823.00,52
822.00,52
821.00,51
820.00,51
819.00,51
818.00,51
817.00,51
816.00,51
815.00,51
814.00,52
813.00,52
812.00,52
811.00,51
810.00,51
809.00,51
808.00,50
807.00,50
806.00,50
805.00,50
804.00,49
803.00,49
802.00,50
801.00,50
800.00,50
799.00,51
798.00,51
797.00,50
796.00,50
795.00,50
794.00,51
793.00,55
792.00,58
791.00,62
790.00,65
789.00,69
788.00,72
787.00,76
786.00,80
785.00,83
784.00,85
783.00,87
782.00,88
781.00,90
780.00,91
779.00,91
778.00,92
777.00,92
776.00,92
775.00,92
774.00,92
773.00,92
772.00,92
771.00,90
770.00,89
769.00,87
768.00,85
767.00,84
766.00,83
765.00,82
764.00,81
763.00,81
762.00,81
761.00,81
760.00,81
759.00,82
758.00,82
757.00,82
756.00,82
755.00,82
754.00,82
753.00,83
752.00,85
751.00,86
750.00,87
749.00,89
748.00,91
747.00,92
746.00,94
745.00,95
744.00,97
743.00,100
742.00,102
741.00,104
740.00,105
739.00,105
738.00,105
737.00,105
736.00,105
735.00,106
734.00,106
733.00,106
732.00,106
731.00,106
730.00,105
729.00,103
728.00,102
727.00,101
726.00,101
725.00,101
724.00,101
723.00,102
722.00,101
721.00,100
720.00,98
719.00,96
718.00,94
717.00,94
716.00,96
715.00,97
714.00,98
713.00,99
712.00,100
711.00,100
710.00,101
709.00,102
708.00,102
707.00,102
706.00,103
705.00,103
704.00,103
703.00,103
702.00,104
701.00,104
700.00,104
699.00,106
698.00,110
697.00,114
696.00,118
695.00,122
694.00,126
693.00,130
692.00,133
691.00,137
690.00,140
689.00,140
688.00,141
687.00,141
686.00,141
685.00,141
684.00,141
683.00,141
682.00,141
681.00,140
680.00,139
679.00,137
678.00,136
677.00,134
676.00,132
675.00,129
674.00,125
673.00,122
672.00,119
671.00,118
670.00,118
669.00,118
668.00,118
667.00,118
666.00,118
665.00,117
664.00,117
663.00,117
662.00,118
661.00,119
660.00,121
659.00,122
658.00,124
657.00,125
656.00,125
655.00,126
654.00,126
653.00,126
652.00,127
651.00,127
650.00,127
649.00,127
648.00,127
647.00,127
646.00,127
645.00,126
644.00,126
643.00,127
642.00,128
641.00,130
640.00,131
639.00,132
638.00,132
637.00,132
636.00,132
635.00,132
634.00,132
633.00,131
632.00,130
631.00,130
630.00,129
629.00,128
628.00,126
627.00,125
626.00,124
625.00,123
624.00,125
623.00,126
622.00,127
621.00,128
620.00,128
619.00,127
618.00,127
617.00,126
616.00,126
615.00,125
614.00,125
613.00,125
612.00,125
611.00,125
610.00,125
609.00,126
608.00,127
607.00,128
606.00,129
605.00,130
604.00,132
603.00,134
602.00,135
601.00,135
600.00,135
599.00,135
598.00,136
597.00,136
596.00,137
595.00,138
594.00,138
593.00,139
592.00,140
591.00,140
590.00,140
589.00,140
588.00,140
587.00,138
586.00,136
585.00,133
584.00,131
583.00,129
582.00,129
581.00,129
580.00,129
579.00,130
578.00,130
577.00,131
576.00,132
575.00,133
574.00,134
573.00,134
572.00,135
571.00,135
570.00,135
569.00,135
568.00,135
567.00,135
566.00,135
565.00,135
564.00,136
563.00,137
562.00,138
561.00,140
560.00,141
559.00,142
558.00,142
557.00,143
556.00,143
555.00,144
554.00,144
553.00,144
552.00,144
551.00,144
550.00,145
549.00,145
548.00,146
547.00,146
546.00,147
545.00,148
544.00,149
543.00,151
542.00,152
541.00,154
540.00,155
539.00,155
538.00,155
537.00,156
536.00,156
535.00,155
534.00,154
533.00,152
532.00,151
531.00,150
530.00,150
529.00,149
528.00,149
527.00,148
526.00,148
525.00,149
524.00,149
523.00,149
522.00,150
521.00,150
520.00,149
519.00,149
518.00,148
517.00,148
516.00,148
515.00,148
514.00,149
513.00,149
512.00,149
511.00,150
510.00,152
509.00,153
508.00,154
507.00,155
506.00,155
505.00,155
504.00,155
503.00,155
502.00,155
501.00,156
500.00,156
499.00,156
498.00,156
497.00,156
496.00,155
495.00,155
494.00,154
493.00,153
492.00,153
491.00,153
490.00,153
489.00,153
488.00,153
487.00,152
486.00,151
485.00,151
484.00,150
483.00,149
482.00,150
481.00,150
480.00,151
479.00,151
478.00,151
477.00,151
476.00,151
475.00,151
474.00,151
473.00,151
472.00,151
471.00,151
470.00,152
469.00,152
468.00,152
467.00,152
466.00,152
465.00,153
464.00,153
463.00,152
462.00,151
461.00,150
460.00,149
459.00,148
458.00,148
457.00,148
456.00,148
455.00,148
454.00,148
453.00,150
452.00,151
451.00,152
450.00,154
449.00,154
448.00,153
447.00,151
446.00,150
445.00,149
444.00,148
443.00,150
442.00,152
441.00,153
440.00,155
439.00,156
438.00,156
437.00,156
436.00,155
435.00,155
434.00,156
433.00,156
432.00,156
431.00,156
430.00,156
429.00,155
428.00,153
427.00,151
426.00,149
425.00,148
424.00,147
423.00,147
422.00,147
421.00,147
420.00,147
419.00,147
418.00,146
417.00,145
416.00,145
415.00,144
414.00,145
413.00,146
412.00,146
411.00,147
410.00,147
409.00,147
408.00,147
407.00,147
406.00,146
405.00,146
404.00,147
403.00,148
402.00,148
401.00,149
400.00,149
399.00,150
398.00,151
397.00,151
396.00,152
395.00,152
394.00,153
393.00,153
392.00,153
391.00,154
390.00,154
389.00,154
388.00,154
387.00,154
386.00,154
385.00,154
384.00,153
383.00,153
382.00,152
381.00,152
380.00,152
379.00,151
378.00,151
377.00,151
376.00,151
375.00,150
374.00,150
373.00,150
372.00,150
371.00,150
370.00,150
369.00,149
368.00,148
367.00,148
366.00,147
365.00,147
364.00,148
363.00,148
362.00,149
361.00,149
360.00,149
359.00,148
358.00,148
357.00,148
356.00,147
355.00,146
354.00,145
353.00,144
352.00,143
351.00,142
350.00,140
349.00,139
348.00,137
347.00,136
346.00,135
345.00,135
344.00,137
343.00,138
342.00,139
341.00,140
340.00,140
339.00,140
338.00,140
337.00,141
336.00,140
335.00,139
334.00,137
333.00,135
332.00,133
331.00,131
330.00,130
329.00,130
328.00,130
327.00,129
326.00,129
325.00,131
324.00,132
323.00,133
322.00,135
321.00,136
320.00,136
319.00,135
318.00,135
317.00,134
316.00,133
315.00,132
314.00,131
313.00,129
312.00,127
311.00,126
310.00,126
309.00,125
308.00,125
307.00,125
306.00,124
305.00,125
304.00,125
303.00,125
302.00,125
301.00,125
300.00,125
299.00,124
298.00,124
297.00,124
296.00,124
295.00,123
294.00,123
293.00,123
292.00,122
291.00,122
290.00,122
289.00,121
288.00,121
287.00,121
286.00,120
285.00,120
284.00,120
283.00,119
282.00,119
281.00,119
280.00,118
279.00,117
278.00,116
277.00,115
276.00,115
275.00,114
274.00,114
273.00,113
272.00,112
271.00,112
270.00,111
269.00,111
268.00,110
267.00,109
266.00,108
265.00,107
264.00,105
263.00,103
262.00,101
261.00,99
260.00,98
259.00,98
258.00,98
257.00,98
256.00,97
255.00,97
254.00,97
253.00,96
252.00,96
251.00,96
250.00,95
249.00,95
248.00,94
247.00,93
246.00,93
245.00,92
244.00,92
243.00,92
242.00,91
241.00,91
240.00,91
239.00,90
238.00,90
237.00,89
236.00,89
235.00,88
234.00,87
233.00,86
232.00,86
231.00,85
230.00,84
229.00,83
228.00,83
227.00,82
226.00,81
225.00,81
224.00,80
223.00,80
222.00,79
221.00,79
220.00,78
219.00,78
218.00,78
217.00,77
216.00,77
215.00,77
214.00,76
213.00,75
212.00,74
211.00,74
210.00,73
209.00,72
208.00,71
207.00,71
206.00,70
205.00,69
204.00,69
203.00,68
202.00,67
201.00,67
200.00,66
199.00,65
198.00,62
197.00,60
196.00,57
195.00,55
194.00,52
193.00,51
192.00,50
191.00,49
190.00,47
189.00,46
188.00,46
187.00,45
186.00,44
185.00,44
184.00,43
183.00,42
182.00,41
181.00,40
180.00,39
179.00,38
178.00,37
177.00,35
176.00,34
175.00,32
174.00,31
173.00,29
172.00,27
171.00,26
170.00,24
169.00,22
168.00,21
167.00,20
166.00,19
165.00,18
164.00,17
163.00,16
162.00,16
161.00,16
160.00,16
159.00,15
158.00,15
157.00,14
156.00,13
155.00,11
154.00,10
153.00,9
152.00,9
151.00,9
150.00,8
149.00,8
148.00,8
147.00,7
146.00,6
145.00,4
144.00,3
143.00,1
142.00,0
141.00,-0
140.00,-1
139.00,-1
138.00,-2
137.00,-2
136.00,-3
135.00,-4
134.00,-5
133.00,-6
132.00,-7
131.00,-8
130.00,-9
129.00,-9
128.00,-10
127.00,-11
126.00,-11
125.00,-10
124.00,-10
123.00,-9
122.00,-9
121.00,-7
120.00,-6
119.00,-4
118.00,-2
117.00,-0
116.00,1
115.00,1
114.00,1
113.00,0
112.00,0
111.00,-0
110.00,-2
109.00,-4
108.00,-5
107.00,-7
106.00,-9
105.00,-10
104.00,-12
103.00,-13
102.00,-14
101.00,-16
100.00,-18
