Created as New Dataset,
Raman Shift / cm-1,INT
3200.00,149
3199.00,127
3198.00,125
3197.00,151
3196.00,193
3195.00,202
3194.00,202
3193.00,200
3192.00,198
3191.00,197
3190.00,226
3189.00,268
3188.00,310
3187.00,339
3186.00,336
3185.00,352
3184.00,382
3183.00,387
3182.00,383
3181.00,389
3180.00,370
3179.00,290
3178.00,253
3177.00,251
3176.00,250
3175.00,248
3174.00,247
3173.00,246
3172.00,245
3171.00,265
3170.00,295
3169.00,245
3168.00,180
3167.00,171
3166.00,170
3165.00,169
3164.00,168
3163.00,165
3162.00,138
3161.00,101
3160.00,66
3159.00,41
3158.00,39
3157.00,24
3156.00,-11
3155.00,-67
3154.00,-129
3153.00,-166
3152.00,-190
3151.00,-191
3150.00,-190
3149.00,-189
3148.00,10
3147.00,349
3146.00,479
3145.00,582
3144.00,966
3143.00,1176
3142.00,783
3141.00,539
3140.00,561
3139.00,457
3138.00,284
3137.00,196
3136.00,139
3135.00,82
3134.00,62
3133.00,140
3132.00,188
3131.00,187
3130.00,186
3129.00,185
3128.00,185
3127.00,187
3126.00,209
3125.00,228
3124.00,228
3123.00,227
3122.00,226
3121.00,197
3120.00,145
3119.00,129
3118.00,126
3117.00,105
3116.00,83
3115.00,81
3114.00,80
3113.00,80
3112.00,80
3111.00,80
3110.00,81
3109.00,81
3108.00,62
3107.00,34
3106.00,-10
3105.00,-49
3104.00,-53
3103.00,-52
3102.00,-52
3101.00,-34
3100.00,11
3099.00,33
3098.00,34
3097.00,63
3096.00,103
3095.00,97
3094.00,84
3093.00,136
3092.00,189
3091.00,193
3090.00,174
3089.00,111
3088.00,72
3087.00,71
3086.00,71
3085.00,71
3084.00,70
3083.00,71
3082.00,86
3081.00,105
3080.00,107
3079.00,104
3078.00,85
3077.00,65
3076.00,45
3075.00,25
3074.00,5
3073.00,-6
3072.00,-6
3071.00,14
3070.00,53
3069.00,79
3068.00,96
3067.00,87
3066.00,69
3065.00,65
3064.00,61
3063.00,29
3062.00,-2
3061.00,-5
3060.00,3
3059.00,36
3058.00,62
3057.00,63
3056.00,69
3055.00,86
3054.00,103
3053.00,120
3052.00,109
3051.00,74
3050.00,61
3049.00,61
3048.00,60
3047.00,60
3046.00,60
3045.00,58
3044.00,45
3043.00,32
3042.00,43
3041.00,57
3040.00,58
3039.00,55
3038.00,40
3037.00,32
3036.00,46
3035.00,57
3034.00,57
3033.00,57
3032.00,57
3031.00,45
3030.00,14
3029.00,10
3028.00,41
3027.00,48
3026.00,33
3025.00,34
3024.00,51
3023.00,218
3022.00,473
3021.00,488
3020.00,373
3019.00,325
3018.00,314
3017.00,433
3016.00,586
3015.00,518
3014.00,381
3013.00,305
3012.00,246
3011.00,178
3010.00,118
3009.00,129
3008.00,152
3007.00,144
3006.00,132
3005.00,129
3004.00,127
3003.00,115
3002.00,103
3001.00,101
3000.00,101
2999.00,100
2998.00,98
2997.00,85
2996.00,79
2995.00,101
2994.00,116
2993.00,95
2992.00,76
2991.00,85
2990.00,97
2989.00,109
2988.00,118
2987.00,118
2986.00,118
2985.00,118
2984.00,117
2983.00,117
2982.00,116
2981.00,116
2980.00,114
2979.00,102
2978.00,90
2977.00,78
2976.00,73
2975.00,93
2974.00,114
2973.00,126
2972.00,133
2971.00,122
2970.00,111
2969.00,99
2968.00,91
2967.00,100
2966.00,109
2965.00,109
2964.00,109
2963.00,108
2962.00,109
2961.00,118
2960.00,127
2959.00,128
2958.00,127
2957.00,127
2956.00,127
2955.00,135
2954.00,144
2953.00,145
2952.00,143
2951.00,118
2950.00,89
2949.00,89
2948.00,98
2947.00,100
2946.00,100
2945.00,99
2944.00,99
2943.00,105
2942.00,115
2941.00,118
2940.00,118
2939.00,117
2938.00,116
2937.00,120
2936.00,129
2935.00,112
2934.00,65
2933.00,37
2932.00,37
2931.00,40
2930.00,49
2929.00,60
2928.00,78
2927.00,91
2926.00,91
2925.00,91
2924.00,91
2923.00,90
2922.00,90
2921.00,88
2920.00,80
2919.00,72
2918.00,70
2917.00,69
2916.00,56
2915.00,38
2914.00,9
2913.00,-24
2912.00,-37
2911.00,-36
2910.00,-8
2909.00,41
2908.00,64
2907.00,55
2906.00,50
2905.00,49
2904.00,49
2903.00,49
2902.00,49
2901.00,48
2900.00,47
2899.00,40
2898.00,34
2897.00,46
2896.00,60
2895.00,63
2894.00,63
2893.00,63
2892.00,63
2891.00,91
2890.00,137
2889.00,158
2888.00,157
2887.00,133
2886.00,73
2885.00,40
2884.00,67
2883.00,106
2882.00,175
2881.00,217
2880.00,93
2879.00,-35
2878.00,-18
2877.00,32
2876.00,71
2875.00,105
2874.00,109
2873.00,95
2872.00,80
2871.00,66
2870.00,60
2869.00,66
2868.00,67
2867.00,54
2866.00,45
2865.00,56
2864.00,68
2863.00,70
2862.00,70
2861.00,74
2860.00,80
2859.00,78
2858.00,72
2857.00,68
2856.00,68
2855.00,67
2854.00,67
2853.00,67
2852.00,67
2851.00,66
2850.00,60
2849.00,53
2848.00,47
2847.00,40
2846.00,42
2845.00,48
2844.00,48
2843.00,41
2842.00,35
2841.00,29
2840.00,24
2839.00,23
2838.00,25
2837.00,35
2836.00,45
2835.00,39
2834.00,28
2833.00,23
2832.00,22
2831.00,25
2830.00,30
2829.00,35
2828.00,35
2827.00,34
2826.00,29
2825.00,23
2824.00,26
2823.00,32
2822.00,30
2821.00,24
2820.00,21
2819.00,21
2818.00,22
2817.00,27
2816.00,33
2815.00,38
2814.00,43
2813.00,35
2812.00,25
2811.00,20
2810.00,20
2809.00,24
2808.00,35
2807.00,42
2806.00,43
2805.00,43
2804.00,47
2803.00,52
2802.00,53
2801.00,53
2800.00,53
2799.00,53
2798.00,51
2797.00,46
2796.00,43
2795.00,51
2794.00,60
2793.00,51
2792.00,35
2791.00,32
2790.00,37
2789.00,38
2788.00,33
2787.00,29
2786.00,28
2785.00,28
2784.00,28
2783.00,28
2782.00,28
2781.00,27
2780.00,27
2779.00,27
2778.00,30
2777.00,43
2776.00,55
2775.00,50
2774.00,41
2773.00,37
2772.00,36
2771.00,40
2770.00,48
2769.00,56
2768.00,56
2767.00,55
2766.00,41
2765.00,23
2764.00,15
2763.00,15
2762.00,13
2761.00,9
2760.00,6
2759.00,9
2758.00,13
2757.00,14
2756.00,14
2755.00,14
2754.00,14
2753.00,14
2752.00,14
2751.00,14
2750.00,14
2749.00,14
2748.00,24
2747.00,40
2746.00,52
2745.00,56
2744.00,61
2743.00,68
2742.00,76
2741.00,72
2740.00,64
2739.00,61
2738.00,65
2737.00,66
2736.00,59
2735.00,48
2734.00,9
2733.00,-39
2732.00,-47
2731.00,-19
2730.00,1
2729.00,2
2728.00,2
2727.00,2
2726.00,2
2725.00,2
2724.00,2
2723.00,2
2722.00,2
2721.00,3
2720.00,9
2719.00,16
2718.00,19
2717.00,19
2716.00,19
2715.00,19
2714.00,18
2713.00,12
2712.00,4
2711.00,4
2710.00,7
2709.00,10
2708.00,10
2707.00,10
2706.00,13
2705.00,16
2704.00,20
2703.00,23
2702.00,29
2701.00,39
2700.00,49
2699.00,50
2698.00,50
2697.00,50
2696.00,49
2695.00,47
2694.00,40
2693.00,34
2692.00,32
2691.00,32
2690.00,32
2689.00,32
2688.00,31
2687.00,28
2686.00,24
2685.00,21
2684.00,17
2683.00,15
2682.00,15
2681.00,15
2680.00,15
2679.00,15
2678.00,13
2677.00,9
2676.00,6
2675.00,2
2674.00,-0
2673.00,2
2672.00,5
2671.00,10
2670.00,16
2669.00,22
2668.00,25
2667.00,28
2666.00,26
2665.00,23
2664.00,22
2663.00,25
2662.00,29
2661.00,35
2660.00,41
2659.00,43
2658.00,44
2657.00,45
2656.00,43
2655.00,41
2654.00,29
2653.00,13
2652.00,5
2651.00,5
2650.00,5
2649.00,8
2648.00,11
2647.00,10
2646.00,7
2645.00,4
2644.00,4
2643.00,5
2642.00,14
2641.00,25
2640.00,31
2639.00,28
2638.00,25
2637.00,25
2636.00,24
2635.00,26
2634.00,28
2633.00,31
2632.00,31
2631.00,30
2630.00,28
2629.00,25
2628.00,23
2627.00,23
2626.00,23
2625.00,20
2624.00,18
2623.00,17
2622.00,20
2621.00,22
2620.00,22
2619.00,22
2618.00,22
2617.00,22
2616.00,21
2615.00,19
2614.00,16
2613.00,13
2612.00,10
2611.00,8
2610.00,8
2609.00,8
2608.00,8
2607.00,8
2606.00,8
2605.00,11
2604.00,13
2603.00,14
2602.00,14
2601.00,14
2600.00,13
2599.00,13
2598.00,13
2597.00,13
2596.00,15
2595.00,20
2594.00,24
2593.00,20
2592.00,15
2591.00,12
2590.00,12
2589.00,10
2588.00,-5
2587.00,-22
2586.00,-34
2585.00,-41
2584.00,-46
2583.00,-38
2582.00,-28
2581.00,-15
2580.00,2
2579.00,12
2578.00,-4
2577.00,-22
2576.00,-29
2575.00,-26
2574.00,-21
2573.00,-6
2572.00,10
2571.00,18
2570.00,20
2569.00,20
2568.00,14
2567.00,7
2566.00,10
2565.00,18
2564.00,25
2563.00,24
2562.00,22
2561.00,21
2560.00,20
2559.00,20
2558.00,18
2557.00,15
2556.00,17
2555.00,21
2554.00,24
2553.00,21
2552.00,16
2551.00,16
2550.00,21
2549.00,24
2548.00,25
2547.00,24
2546.00,25
2545.00,27
2544.00,29
2543.00,29
2542.00,29
2541.00,29
2540.00,29
2539.00,28
2538.00,25
2537.00,20
2536.00,22
2535.00,32
2534.00,41
2533.00,40
2532.00,36
2531.00,32
2530.00,30
2529.00,28
2528.00,27
2527.00,27
2526.00,26
2525.00,22
2524.00,18
2523.00,13
2522.00,7
2521.00,2
2520.00,5
2519.00,9
2518.00,12
2517.00,13
2516.00,15
2515.00,13
2514.00,11
2513.00,10
2512.00,10
2511.00,10
2510.00,8
2509.00,6
2508.00,5
2507.00,5
2506.00,5
2505.00,3
2504.00,1
2503.00,0
2502.00,4
2501.00,7
2500.00,9
2499.00,9
2498.00,9
2497.00,9
2496.00,9
2495.00,6
2494.00,1
2493.00,-4
2492.00,-2
2491.00,4
2490.00,7
2489.00,4
2488.00,0
2487.00,1
2486.00,4
2485.00,8
2484.00,11
2483.00,15
2482.00,15
2481.00,11
2480.00,8
2479.00,10
2478.00,13
2477.00,16
2476.00,16
2475.00,16
2474.00,10
2473.00,2
2472.00,-6
2471.00,-7
2470.00,-7
2469.00,-7
2468.00,-5
2467.00,-4
2466.00,-4
2465.00,-6
2464.00,-7
2463.00,-8
2462.00,-8
2461.00,-7
2460.00,-5
2459.00,-4
2458.00,-2
2457.00,-0
2456.00,1
2455.00,3
2454.00,4
2453.00,6
2452.00,7
2451.00,9
2450.00,12
2449.00,15
2448.00,18
2447.00,19
2446.00,21
2445.00,20
2444.00,18
2443.00,17
2442.00,17
2441.00,17
2440.00,16
2439.00,16
2438.00,16
2437.00,15
2436.00,13
2435.00,12
2434.00,10
2433.00,8
2432.00,6
2431.00,3
2430.00,-0
2429.00,-4
2428.00,-7
2427.00,-10
2426.00,-11
2425.00,-13
2424.00,-14
2423.00,-14
2422.00,-14
2421.00,-14
2420.00,-14
2419.00,-14
2418.00,-12
2417.00,-11
2416.00,-7
2415.00,1
2414.00,8
2413.00,22
2412.00,39
2411.00,48
2410.00,28
2409.00,5
2408.00,-10
2407.00,-10
2406.00,-10
2405.00,-3
2404.00,7
2403.00,15
2402.00,7
2401.00,-4
2400.00,-11
2399.00,-11
2398.00,-11
2397.00,-5
2396.00,3
2395.00,11
2394.00,12
2393.00,12
2392.00,12
2391.00,12
2390.00,12
2389.00,12
2388.00,12
2387.00,12
2386.00,13
2385.00,14
2384.00,15
2383.00,14
2382.00,12
2381.00,11
2380.00,9
2379.00,8
2378.00,7
2377.00,7
2376.00,7
2375.00,5
2374.00,4
2373.00,3
2372.00,3
2371.00,3
2370.00,3
2369.00,3
2368.00,3
2367.00,2
2366.00,2
2365.00,2
2364.00,1
2363.00,-0
2362.00,-1
2361.00,-2
2360.00,-2
2359.00,1
2358.00,6
2357.00,12
2356.00,13
2355.00,13
2354.00,12
2353.00,11
2352.00,10
2351.00,9
2350.00,8
2349.00,8
2348.00,10
2347.00,12
2346.00,15
2345.00,12
2344.00,8
2343.00,5
2342.00,3
2341.00,2
2340.00,1
2339.00,1
2338.00,1
2337.00,0
2336.00,0
2335.00,0
2334.00,0
2333.00,0
2332.00,0
2331.00,1
2330.00,2
2329.00,4
2328.00,8
2327.00,11
2326.00,13
2325.00,12
2324.00,10
2323.00,10
2322.00,10
2321.00,10
2320.00,9
2319.00,7
2318.00,6
2317.00,5
2316.00,4
2315.00,3
2314.00,3
2313.00,2
2312.00,3
2311.00,4
2310.00,5
2309.00,5
2308.00,4
2307.00,2
2306.00,2
2305.00,2
2304.00,2
2303.00,1
2302.00,-1
2301.00,-2
2300.00,-2
2299.00,-2
2298.00,-1
2297.00,2
2296.00,4
2295.00,6
2294.00,7
2293.00,8
2292.00,8
2291.00,8
2290.00,8
2289.00,8
2288.00,8
2287.00,8
2286.00,8
2285.00,8
2284.00,7
2283.00,4
2282.00,2
2281.00,1
2280.00,1
2279.00,1
2278.00,-0
2277.00,-1
2276.00,-3
2275.00,-4
2274.00,-5
2273.00,-6
2272.00,-6
2271.00,-6
2270.00,-6
2269.00,-6
2268.00,-6
2267.00,-6
2266.00,-6
2265.00,-7
2264.00,-7
2263.00,-8
2262.00,-9
2261.00,-6
2260.00,-1
2259.00,5
2258.00,7
2257.00,8
2256.00,9
2255.00,8
2254.00,7
2253.00,6
2252.00,6
2251.00,6
2250.00,6
2249.00,8
2248.00,10
2247.00,12
2246.00,12
2245.00,12
2244.00,11
2243.00,10
2242.00,9
2241.00,8
2240.00,6
2239.00,5
2238.00,6
2237.00,7
2236.00,8
2235.00,6
2234.00,4
2233.00,2
2232.00,-1
2231.00,-3
2230.00,-4
2229.00,-3
2228.00,-0
2227.00,2
2226.00,6
2225.00,11
2224.00,12
2223.00,8
2222.00,4
2221.00,0
2220.00,-2
2219.00,-4
2218.00,-4
2217.00,-1
2216.00,3
2215.00,4
2214.00,4
2213.00,4
2212.00,4
2211.00,4
2210.00,4
2209.00,5
2208.00,6
2207.00,6
2206.00,7
2205.00,7
2204.00,7
2203.00,7
2202.00,8
2201.00,9
2200.00,7
2199.00,5
2198.00,3
2197.00,3
2196.00,3
2195.00,3
2194.00,1
2193.00,-2
2192.00,-3
2191.00,-1
2190.00,1
2189.00,3
2188.00,3
2187.00,3
2186.00,3
2185.00,3
2184.00,2
2183.00,2
2182.00,2
2181.00,2
2180.00,2
2179.00,2
2178.00,2
2177.00,2
2176.00,0
2175.00,-1
2174.00,-0
2173.00,1
2172.00,2
2171.00,2
2170.00,2
2169.00,2
2168.00,2
2167.00,2
2166.00,2
2165.00,2
2164.00,2
2163.00,2
2162.00,5
2161.00,9
2160.00,12
2159.00,12
2158.00,11
2157.00,10
2156.00,10
2155.00,10
2154.00,10
2153.00,8
2152.00,6
2151.00,4
2150.00,3
2149.00,2
2148.00,1
2147.00,-1
2146.00,-3
2145.00,-5
2144.00,-3
2143.00,-1
2142.00,1
2141.00,2
2140.00,4
2139.00,6
2138.00,6
2137.00,6
2136.00,6
2135.00,7
2134.00,8
2133.00,8
2132.00,7
2131.00,6
2130.00,5
2129.00,4
2128.00,3
2127.00,2
2126.00,0
2125.00,-2
2124.00,-3
2123.00,-4
2122.00,-4
2121.00,-4
2120.00,-3
2119.00,-2
2118.00,-2
2117.00,-1
2116.00,0
2115.00,1
2114.00,1
2113.00,1
2112.00,1
2111.00,2
2110.00,4
2109.00,5
2108.00,5
2107.00,5
2106.00,5
2105.00,4
2104.00,3
2103.00,2
2102.00,-1
2101.00,-4
2100.00,-7
2099.00,-6
2098.00,-3
2097.00,1
2096.00,1
2095.00,1
2094.00,1
2093.00,1
2092.00,2
2091.00,3
2090.00,4
2089.00,5
2088.00,7
2087.00,7
2086.00,7
2085.00,7
2084.00,6
2083.00,4
2082.00,2
2081.00,1
2080.00,0
2079.00,-1
2078.00,-2
2077.00,-4
2076.00,-5
2075.00,-6
2074.00,-6
2073.00,-6
2072.00,-6
2071.00,-5
2070.00,-3
2069.00,-2
2068.00,-1
2067.00,1
2066.00,2
2065.00,1
2064.00,1
2063.00,1
2062.00,1
2061.00,1
2060.00,1
2059.00,2
2058.00,3
2057.00,4
2056.00,3
2055.00,3
2054.00,2
2053.00,2
2052.00,1
2051.00,1
2050.00,0
2049.00,-1
2048.00,-2
2047.00,-1
2046.00,2
2045.00,5
2044.00,3
2043.00,-2
2042.00,-7
2041.00,-10
2040.00,-11
2039.00,-11
2038.00,-11
2037.00,-9
2036.00,-7
2035.00,-3
2034.00,4
2033.00,12
2032.00,15
2031.00,6
2030.00,-3
2029.00,-9
2028.00,-4
2027.00,2
2026.00,7
2025.00,6
2024.00,5
2023.00,3
2022.00,-2
2021.00,-9
2020.00,-15
2019.00,-13
2018.00,-8
2017.00,-4
2016.00,-3
2015.00,-3
2014.00,-3
2013.00,-3
2012.00,-3
2011.00,-3
2010.00,-2
2009.00,-1
2008.00,1
2007.00,2
2006.00,1
2005.00,-1
2004.00,-1
2003.00,-0
2002.00,1
2001.00,1
2000.00,-1
1999.00,-3
1998.00,-5
1997.00,-6
1996.00,-6
1995.00,-6
1994.00,-6
1993.00,-6
1992.00,-6
1991.00,-5
1990.00,-3
1989.00,-1
1988.00,1
1987.00,3
1986.00,4
1985.00,5
1984.00,4
1983.00,3
1982.00,2
1981.00,2
1980.00,1
1979.00,1
1978.00,1
1977.00,0
1976.00,-0
1975.00,-1
1974.00,-1
1973.00,-1
1972.00,-1
1971.00,-1
1970.00,-1
1969.00,-1
1968.00,-2
1967.00,-2
1966.00,-3
1965.00,-3
1964.00,-4
1963.00,-4
1962.00,-4
1961.00,-5
1960.00,-5
1959.00,-4
1958.00,-2
1957.00,-1
1956.00,-0
1955.00,-0
1954.00,-1
1953.00,-0
1952.00,0
1951.00,0
1950.00,1
1949.00,3
1948.00,4
1947.00,5
1946.00,6
1945.00,7
1944.00,8
1943.00,7
1942.00,7
1941.00,6
1940.00,6
1939.00,6
1938.00,6
1937.00,6
1936.00,5
1935.00,4
1934.00,3
1933.00,3
1932.00,3
1931.00,3
1930.00,3
1929.00,2
1928.00,2
1927.00,4
1926.00,6
1925.00,8
1924.00,9
1923.00,9
1922.00,9
1921.00,9
1920.00,9
1919.00,9
1918.00,9
1917.00,8
1916.00,7
1915.00,6
1914.00,5
1913.00,5
1912.00,5
1911.00,5
1910.00,5
1909.00,5
1908.00,5
1907.00,6
1906.00,6
1905.00,6
1904.00,7
1903.00,8
1902.00,9
1901.00,10
1900.00,11
1899.00,12
1898.00,12
1897.00,11
1896.00,10
1895.00,10
1894.00,10
1893.00,10
1892.00,10
1891.00,9
1890.00,8
1889.00,7
1888.00,6
1887.00,6
1886.00,5
1885.00,5
1884.00,4
1883.00,4
1882.00,4
1881.00,5
1880.00,6
1879.00,7
1878.00,8
1877.00,9
1876.00,9
1875.00,10
1874.00,10
1873.00,10
1872.00,11
1871.00,11
1870.00,11
1869.00,11
1868.00,11
1867.00,11
1866.00,10
1865.00,9
1864.00,8
1863.00,7
1862.00,6
1861.00,6
1860.00,6
1859.00,6
1858.00,6
1857.00,6
1856.00,6
1855.00,5
1854.00,5
1853.00,5
1852.00,4
1851.00,4
1850.00,3
1849.00,3
1848.00,6
1847.00,8
1846.00,10
1845.00,7
1844.00,4
1843.00,1
1842.00,2
1841.00,5
1840.00,8
1839.00,10
1838.00,10
1837.00,10
1836.00,9
1835.00,7
1834.00,5
1833.00,3
1832.00,3
1831.00,3
1830.00,4
1829.00,6
1828.00,10
1827.00,14
1826.00,17
1825.00,17
1824.00,16
1823.00,15
1822.00,16
1821.00,18
1820.00,20
1819.00,22
1818.00,25
1817.00,29
1816.00,31
1815.00,29
1814.00,27
1813.00,24
1812.00,20
1811.00,16
1810.00,12
1809.00,9
1808.00,9
1807.00,8
1806.00,8
1805.00,8
1804.00,8
1803.00,8
1802.00,8
1801.00,8
1800.00,7
1799.00,7
1798.00,6
1797.00,5
1796.00,4
1795.00,4
1794.00,4
1793.00,4
1792.00,4
1791.00,4
1790.00,4
1789.00,4
1788.00,4
1787.00,4
1786.00,4
1785.00,4
1784.00,5
1783.00,5
1782.00,5
1781.00,6
1780.00,6
1779.00,6
1778.00,9
1777.00,12
1776.00,14
1775.00,16
1774.00,16
1773.00,16
1772.00,16
1771.00,16
1770.00,17
1769.00,18
1768.00,17
1767.00,17
1766.00,16
1765.00,15
1764.00,13
1763.00,12
1762.00,11
1761.00,10
1760.00,10
1759.00,9
1758.00,9
1757.00,10
1756.00,10
1755.00,10
1754.00,10
1753.00,10
1752.00,10
1751.00,11
1750.00,11
1749.00,12
1748.00,12
1747.00,13
1746.00,13
1745.00,13
1744.00,14
1743.00,15
1742.00,15
1741.00,15
1740.00,15
1739.00,15
1738.00,16
1737.00,17
1736.00,19
1735.00,21
1734.00,22
1733.00,23
1732.00,23
1731.00,24
1730.00,23
1729.00,23
1728.00,22
1727.00,22
1726.00,23
1725.00,23
1724.00,23
1723.00,23
1722.00,23
1721.00,23
1720.00,23
1719.00,22
1718.00,22
1717.00,21
1716.00,21
1715.00,21
1714.00,20
1713.00,19
1712.00,17
1711.00,15
1710.00,15
1709.00,16
1708.00,17
1707.00,18
1706.00,17
1705.00,17
1704.00,16
1703.00,16
1702.00,15
1701.00,15
1700.00,15
1699.00,15
1698.00,14
1697.00,13
1696.00,13
1695.00,13
1694.00,13
1693.00,13
1692.00,13
1691.00,13
1690.00,13
1689.00,13
1688.00,13
1687.00,14
1686.00,14
1685.00,13
1684.00,11
1683.00,9
1682.00,10
1681.00,12
1680.00,14
1679.00,15
1678.00,15
1677.00,15
1676.00,15
1675.00,15
1674.00,15
1673.00,16
1672.00,16
1671.00,16
1670.00,16
1669.00,16
1668.00,16
1667.00,16
1666.00,17
1665.00,17
1664.00,17
1663.00,17
1662.00,17
1661.00,17
1660.00,19
1659.00,20
1658.00,21
1657.00,22
1656.00,23
1655.00,23
1654.00,23
1653.00,22
1652.00,20
1651.00,19
1650.00,18
1649.00,17
1648.00,16
1647.00,15
1646.00,16
1645.00,17
1644.00,17
1643.00,17
1642.00,16
1641.00,15
1640.00,14
1639.00,14
1638.00,14
1637.00,14
1636.00,14
1635.00,15
1634.00,16
1633.00,17
1632.00,16
1631.00,16
1630.00,16
1629.00,15
1628.00,15
1627.00,15
1626.00,15
1625.00,16
1624.00,17
1623.00,19
1622.00,20
1621.00,20
1620.00,21
1619.00,22
1618.00,22
1617.00,22
1616.00,22
1615.00,22
1614.00,23
1613.00,23
1612.00,24
1611.00,24
1610.00,24
1609.00,24
1608.00,25
1607.00,24
1606.00,24
1605.00,24
1604.00,24
1603.00,23
1602.00,22
1601.00,21
1600.00,21
1599.00,21
1598.00,21
1597.00,20
1596.00,19
1595.00,18
1594.00,18
1593.00,17
1592.00,18
1591.00,18
1590.00,18
1589.00,17
1588.00,17
1587.00,16
1586.00,15
1585.00,13
1584.00,12
1583.00,11
1582.00,12
1581.00,14
1580.00,16
1579.00,17
1578.00,17
1577.00,17
1576.00,17
1575.00,18
1574.00,19
1573.00,20
1572.00,21
1571.00,21
1570.00,21
1569.00,21
1568.00,20
1567.00,19
1566.00,18
1565.00,16
1564.00,17
1563.00,18
1562.00,19
1561.00,20
1560.00,19
1559.00,19
1558.00,19
1557.00,19
1556.00,19
1555.00,19
1554.00,19
1553.00,19
1552.00,19
1551.00,18
1550.00,18
1549.00,18
1548.00,18
1547.00,18
1546.00,18
1545.00,19
1544.00,19
1543.00,19
1542.00,19
1541.00,20
1540.00,20
1539.00,20
1538.00,20
1537.00,20
1536.00,20
1535.00,21
1534.00,21
1533.00,21
1532.00,22
1531.00,22
1530.00,22
1529.00,22
1528.00,23
1527.00,23
1526.00,24
1525.00,24
1524.00,24
1523.00,24
1522.00,24
1521.00,24
1520.00,24
1519.00,23
1518.00,23
1517.00,23
1516.00,23
1515.00,23
1514.00,23
1513.00,23
1512.00,23
1511.00,23
1510.00,23
1509.00,22
1508.00,22
1507.00,21
1506.00,20
1505.00,20
1504.00,20
1503.00,20
1502.00,20
1501.00,20
1500.00,20
1499.00,20
1498.00,20
1497.00,20
1496.00,20
1495.00,20
1494.00,20
1493.00,20
1492.00,20
1491.00,20
1490.00,21
1489.00,22
1488.00,23
1487.00,24
1486.00,24
1485.00,25
1484.00,25
1483.00,25
1482.00,25
1481.00,25
1480.00,25
1479.00,24
1478.00,24
1477.00,23
1476.00,23
1475.00,23
1474.00,23
1473.00,22
1472.00,22
1471.00,22
1470.00,22
1469.00,22
1468.00,22
1467.00,22
1466.00,22
1465.00,23
1464.00,24
1463.00,25
1462.00,26
1461.00,26
1460.00,26
1459.00,27
1458.00,27
1457.00,28
1456.00,29
1455.00,29
1454.00,30
1453.00,31
1452.00,31
1451.00,32
1450.00,31
1449.00,31
1448.00,30
1447.00,29
1446.00,29
1445.00,28
1444.00,28
1443.00,27
1442.00,27
1441.00,26
1440.00,25
1439.00,25
1438.00,24
1437.00,24
1436.00,24
1435.00,24
1434.00,24
1433.00,24
1432.00,23
1431.00,23
1430.00,23
1429.00,23
1428.00,23
1427.00,23
1426.00,23
1425.00,23
1424.00,23
1423.00,23
1422.00,24
1421.00,24
1420.00,25
1419.00,25
1418.00,25
1417.00,25
1416.00,25
1415.00,25
1414.00,25
1413.00,26
1412.00,26
1411.00,26
1410.00,26
1409.00,27
1408.00,27
1407.00,27
1406.00,27
1405.00,27
1404.00,29
1403.00,30
1402.00,32
1401.00,32
1400.00,32
1399.00,32
1398.00,32
1397.00,31
1396.00,31
1395.00,31
1394.00,31
1393.00,30
1392.00,28
1391.00,27
1390.00,26
1389.00,26
1388.00,26
1387.00,26
1386.00,26
1385.00,26
1384.00,26
1383.00,26
1382.00,26
1381.00,27
1380.00,28
1379.00,28
1378.00,28
1377.00,28
1376.00,28
1375.00,28
1374.00,28
1373.00,28
1372.00,28
1371.00,28
1370.00,28
1369.00,28
1368.00,27
1367.00,27
1366.00,27
1365.00,27
1364.00,28
1363.00,28
1362.00,28
1361.00,28
1360.00,29
1359.00,29
1358.00,28
1357.00,28
1356.00,27
1355.00,28
1354.00,29
1353.00,30
1352.00,30
1351.00,30
1350.00,30
1349.00,29
1348.00,29
1347.00,29
1346.00,29
1345.00,29
1344.00,29
1343.00,29
1342.00,30
1341.00,30
1340.00,31
1339.00,30
1338.00,30
1337.00,29
1336.00,29
1335.00,28
1334.00,28
1333.00,28
1332.00,28
1331.00,27
1330.00,26
1329.00,25
1328.00,25
1327.00,25
1326.00,25
1325.00,25
1324.00,25
1323.00,25
1322.00,25
1321.00,24
1320.00,24
1319.00,24
1318.00,24
1317.00,24
1316.00,24
1315.00,25
1314.00,25
1313.00,26
1312.00,25
1311.00,24
1310.00,24
1309.00,23
1308.00,23
1307.00,23
1306.00,23
1305.00,23
1304.00,24
1303.00,25
1302.00,26
1301.00,27
1300.00,27
1299.00,27
1298.00,27
1297.00,27
1296.00,27
1295.00,27
1294.00,27
1293.00,27
1292.00,27
1291.00,27
1290.00,27
1289.00,26
1288.00,26
1287.00,26
1286.00,25
1285.00,25
1284.00,24
1283.00,24
1282.00,23
1281.00,22
1280.00,22
1279.00,22
1278.00,21
1277.00,21
1276.00,21
1275.00,20
1274.00,20
1273.00,19
1272.00,17
1271.00,16
1270.00,15
1269.00,14
1268.00,14
1267.00,14
1266.00,14
1265.00,14
1264.00,15
1263.00,15
1262.00,16
1261.00,15
1260.00,15
1259.00,14
1258.00,13
1257.00,13
1256.00,13
1255.00,12
1254.00,12
1253.00,12
1252.00,12
1251.00,13
1250.00,13
1249.00,13
1248.00,13
1247.00,13
1246.00,13
1245.00,13
1244.00,13
1243.00,13
1242.00,13
1241.00,13
1240.00,13
1239.00,13
1238.00,13
1237.00,13
1236.00,13
1235.00,14
1234.00,14
1233.00,13
1232.00,11
1231.00,10
1230.00,9
1229.00,10
1228.00,11
1227.00,12
1226.00,13
1225.00,12
1224.00,11
1223.00,10
1222.00,9
1221.00,9
1220.00,8
1219.00,8
1218.00,7
1217.00,7
1216.00,7
1215.00,7
1214.00,7
1213.00,7
1212.00,8
1211.00,8
1210.00,9
1209.00,8
1208.00,8
1207.00,8
1206.00,8
1205.00,8
1204.00,8
1203.00,8
1202.00,9
1201.00,8
1200.00,8
1199.00,8
1198.00,8
1197.00,8
1196.00,8
1195.00,9
1194.00,9
1193.00,9
1192.00,9
1191.00,9
1190.00,9
1189.00,9
1188.00,9
1187.00,9
1186.00,9
1185.00,9
1184.00,8
1183.00,7
1182.00,6
1181.00,6
1180.00,5
1179.00,5
1178.00,4
1177.00,4
1176.00,3
1175.00,3
1174.00,3
1173.00,3
1172.00,3
1171.00,3
1170.00,4
1169.00,4
1168.00,4
1167.00,4
1166.00,4
1165.00,4
1164.00,4
1163.00,5
1162.00,5
1161.00,6
1160.00,6
1159.00,6
1158.00,5
1157.00,5
1156.00,5
1155.00,5
1154.00,5
1153.00,5
1152.00,6
1151.00,7
1150.00,7
1149.00,7
1148.00,7
1147.00,7
1146.00,7
1145.00,7
1144.00,7
1143.00,7
1142.00,7
1141.00,7
1140.00,7
1139.00,7
1138.00,8
1137.00,8
1136.00,8
1135.00,8
1134.00,8
1133.00,8
1132.00,8
1131.00,8
1130.00,8
1129.00,8
1128.00,8
1127.00,9
1126.00,9
1125.00,10
1124.00,10
1123.00,10
1122.00,11
1121.00,11
1120.00,11
1119.00,10
1118.00,10
1117.00,10
1116.00,9
1115.00,9
1114.00,8
1113.00,8
1112.00,8
1111.00,8
1110.00,9
1109.00,10
1108.00,10
1107.00,9
1106.00,9
1105.00,8
1104.00,8
1103.00,7
1102.00,6
1101.00,5
1100.00,5
1099.00,5
1098.00,5
1097.00,5
1096.00,5
1095.00,4
1094.00,4
1093.00,4
1092.00,4
1091.00,4
1090.00,4
1089.00,3
1088.00,3
1087.00,3
1086.00,3
1085.00,3
1084.00,3
1083.00,3
1082.00,3
1081.00,2
1080.00,2
1079.00,2
1078.00,1
1077.00,-1
1076.00,-2
1075.00,-3
1074.00,-2
1073.00,-1
1072.00,0
1071.00,1
1070.00,1
1069.00,1
1068.00,1
1067.00,1
1066.00,-0
1065.00,-1
1064.00,-2
1063.00,-3
1062.00,-3
1061.00,-2
1060.00,-1
1059.00,1
1058.00,1
1057.00,1
1056.00,1
1055.00,1
1054.00,1
1053.00,1
1052.00,2
1051.00,2
1050.00,2
1049.00,2
1048.00,2
1047.00,2
1046.00,2
1045.00,2
1044.00,3
1043.00,3
1042.00,3
1041.00,3
1040.00,3
1039.00,3
1038.00,3
1037.00,2
1036.00,2
1035.00,2
1034.00,2
1033.00,2
1032.00,2
1031.00,2
1030.00,2
1029.00,2
1028.00,1
1027.00,-0
1026.00,-1
1025.00,-2
1024.00,-2
1023.00,-3
1022.00,-3
1021.00,-3
1020.00,-3
1019.00,-2
1018.00,-2
1017.00,-2
1016.00,-2
1015.00,-2
1014.00,-1
1013.00,-0
1012.00,-0
1011.00,-0
1010.00,-0
1009.00,-0
1008.00,-0
1007.00,0
1006.00,1
1005.00,1
1004.00,1
1003.00,2
1002.00,1
1001.00,1
1000.00,1
999.00,1
998.00,0
997.00,0
996.00,0
995.00,0
994.00,0
993.00,0
992.00,1
991.00,1
990.00,1
989.00,1
988.00,1
987.00,1
986.00,1
985.00,1
984.00,1
983.00,1
982.00,1
981.00,1
980.00,1
979.00,1
978.00,1
977.00,1
976.00,0
975.00,0
974.00,-0
973.00,-0
972.00,-0
971.00,-0
970.00,-0
969.00,0
968.00,1
967.00,1
966.00,1
965.00,2
964.00,2
963.00,2
962.00,2
961.00,2
960.00,2
959.00,2
958.00,2
957.00,1
956.00,1
955.00,1
954.00,1
953.00,1
952.00,1
951.00,1
950.00,1
949.00,1
948.00,1
947.00,1
946.00,1
945.00,1
944.00,1
943.00,1
942.00,1
941.00,1
940.00,0
939.00,0
938.00,0
937.00,-0
936.00,-0
935.00,-0
934.00,-0
933.00,0
932.00,1
931.00,1
930.00,1
929.00,1
928.00,1
927.00,1
926.00,1
925.00,1
924.00,1
923.00,2
922.00,2
921.00,2
920.00,2
919.00,2
918.00,2
917.00,2
916.00,2
915.00,2
914.00,2
913.00,2
912.00,2
911.00,3
910.00,3
909.00,4
908.00,3
907.00,3
906.00,3
905.00,3
904.00,2
903.00,2
902.00,2
901.00,1
900.00,1
899.00,1
898.00,2
897.00,2
896.00,2
895.00,2
894.00,2
893.00,2
892.00,2
891.00,2
890.00,2
889.00,2
888.00,2
887.00,2
886.00,2
885.00,2
884.00,2
883.00,2
882.00,2
881.00,2
880.00,3
879.00,3
878.00,3
877.00,3
876.00,3
875.00,3
874.00,3
873.00,3
872.00,4
871.00,5
870.00,6
869.00,6
868.00,6
867.00,6
866.00,6
865.00,6
864.00,6
863.00,6
862.00,6
861.00,5
860.00,5
859.00,5
858.00,5
857.00,5
856.00,6
855.00,6
854.00,6
853.00,7
852.00,7
851.00,6
850.00,6
849.00,5
848.00,5
847.00,5
846.00,5
845.00,5
844.00,5
843.00,4
842.00,4
841.00,4
840.00,4
839.00,4
838.00,4
837.00,4
836.00,4
835.00,4
834.00,4
833.00,3
832.00,3
831.00,3
830.00,3
829.00,3
828.00,3
827.00,3
826.00,3
825.00,3
824.00,3
823.00,3
822.00,3
821.00,3
820.00,3
819.00,3
818.00,3
817.00,3
816.00,3
815.00,2
814.00,2
813.00,1
812.00,1
811.00,1
810.00,1
809.00,1
808.00,0
807.00,0
806.00,0
805.00,-0
804.00,-0
803.00,-0
802.00,0
801.00,1
800.00,1
799.00,2
798.00,2
797.00,2
796.00,2
795.00,2
794.00,2
793.00,2
792.00,2
791.00,3
790.00,3
789.00,3
788.00,4
787.00,4
786.00,5
785.00,5
784.00,5
783.00,5
782.00,6
781.00,6
780.00,6
779.00,6
778.00,6
777.00,6
776.00,6
775.00,5
774.00,5
773.00,5
772.00,5
771.00,5
770.00,5
769.00,5
768.00,5
767.00,5
766.00,5
765.00,5
764.00,5
763.00,5
762.00,4
761.00,3
760.00,2
759.00,1
758.00,1
757.00,2
756.00,3
755.00,4
754.00,5
753.00,5
752.00,5
751.00,5
750.00,5
749.00,5
748.00,5
747.00,5
746.00,5
745.00,6
744.00,5
743.00,5
742.00,5
741.00,5
740.00,5
739.00,5
738.00,5
737.00,5
736.00,5
735.00,5
734.00,5
733.00,5
732.00,5
731.00,5
730.00,5
729.00,5
728.00,5
727.00,5
726.00,5
725.00,5
724.00,5
723.00,6
722.00,6
721.00,6
720.00,6
719.00,6
718.00,6
717.00,6
716.00,6
715.00,6
714.00,6
713.00,6
712.00,6
711.00,6
710.00,6
709.00,6
708.00,6
707.00,6
706.00,6
705.00,6
704.00,6
703.00,6
702.00,6
701.00,6
700.00,6
699.00,6
698.00,5
697.00,4
696.00,3
695.00,3
694.00,2
693.00,2
692.00,2
691.00,2
690.00,2
689.00,2
688.00,3
687.00,3
686.00,3
685.00,3
684.00,4
683.00,4
682.00,5
681.00,5
680.00,5
679.00,4
678.00,4
677.00,4
676.00,3
675.00,3
674.00,3
673.00,3
672.00,3
671.00,3
670.00,3
669.00,3
668.00,3
667.00,3
666.00,4
665.00,5
664.00,6
663.00,7
662.00,7
661.00,6
660.00,5
659.00,4
658.00,4
657.00,4
656.00,5
655.00,6
654.00,6
653.00,7
652.00,8
651.00,9
650.00,10
649.00,10
648.00,10
647.00,9
646.00,8
645.00,7
644.00,6
643.00,6
642.00,6
641.00,6
640.00,6
639.00,6
638.00,6
637.00,6
636.00,6
635.00,6
634.00,6
633.00,6
632.00,6
631.00,6
630.00,6
629.00,5
628.00,5
627.00,4
626.00,4
625.00,3
624.00,3
623.00,3
622.00,4
621.00,4
620.00,4
619.00,4
618.00,4
617.00,4
616.00,4
615.00,4
614.00,4
613.00,4
612.00,4
611.00,4
610.00,3
609.00,3
608.00,3
607.00,3
606.00,3
605.00,3
604.00,3
603.00,3
602.00,3
601.00,3
600.00,3
599.00,4
598.00,4
597.00,4
596.00,4
595.00,4
594.00,5
593.00,5
592.00,5
591.00,5
590.00,6
589.00,6
588.00,6
587.00,6
586.00,5
585.00,5
584.00,5
583.00,5
582.00,4
581.00,4
580.00,4
579.00,4
578.00,4
577.00,4
576.00,4
575.00,4
574.00,4
573.00,3
572.00,3
571.00,3
570.00,3
569.00,3
568.00,3
567.00,3
566.00,3
565.00,3
564.00,3
563.00,3
562.00,3
561.00,3
560.00,3
559.00,3
558.00,4
557.00,4
556.00,5
555.00,6
554.00,5
553.00,4
552.00,4
551.00,3
550.00,3
549.00,3
548.00,4
547.00,4
546.00,5
545.00,5
544.00,5
543.00,5
542.00,6
541.00,6
540.00,6
539.00,6
538.00,6
537.00,6
536.00,6
535.00,6
534.00,6
533.00,5
532.00,5
531.00,5
530.00,5
529.00,5
528.00,5
527.00,5
526.00,5
525.00,5
524.00,5
523.00,5
522.00,5
521.00,5
520.00,5
519.00,4
518.00,4
517.00,4
516.00,4
515.00,4
514.00,4
513.00,4
512.00,4
511.00,5
510.00,5
509.00,6
508.00,6
507.00,7
506.00,7
505.00,7
504.00,7
503.00,7
502.00,7
501.00,7
500.00,7
499.00,7
498.00,7
497.00,7
496.00,7
495.00,7
494.00,7
493.00,7
492.00,7
491.00,7
490.00,7
489.00,7
488.00,7
487.00,6
486.00,5
485.00,4
484.00,2
483.00,2
482.00,2
481.00,3
480.00,4
479.00,5
478.00,6
477.00,5
476.00,4
475.00,4
474.00,3
473.00,3
472.00,2
471.00,2
470.00,2
469.00,2
468.00,2
467.00,2
466.00,3
465.00,3
464.00,3
463.00,3
462.00,4
461.00,4
460.00,4
459.00,5
458.00,4
457.00,4
456.00,4
455.00,4
454.00,3
453.00,3
452.00,3
451.00,3
450.00,3
449.00,3
448.00,3
447.00,3
446.00,3
445.00,3
444.00,3
443.00,4
442.00,4
441.00,5
440.00,5
439.00,6
438.00,6
437.00,6
436.00,6
435.00,5
434.00,6
433.00,6
432.00,6
431.00,6
430.00,6
429.00,6
428.00,7
427.00,7
426.00,7
425.00,8
424.00,7
423.00,7
422.00,6
421.00,6
420.00,6
419.00,6
418.00,7
417.00,9
416.00,10
415.00,10
414.00,9
413.00,8
412.00,7
411.00,6
410.00,5
409.00,5
408.00,5
407.00,5
406.00,5
405.00,5
404.00,5
403.00,5
402.00,5
401.00,5
400.00,5
399.00,5
398.00,5
397.00,5
396.00,5
395.00,5
394.00,5
393.00,5
392.00,5
391.00,5
390.00,5
389.00,5
388.00,5
387.00,5
386.00,5
385.00,5
384.00,6
383.00,6
382.00,7
381.00,7
380.00,7
379.00,7
378.00,7
377.00,7
376.00,7
375.00,7
374.00,7
373.00,8
372.00,8
371.00,8
370.00,8
369.00,8
368.00,8
367.00,8
366.00,8
365.00,8
364.00,8
363.00,8
362.00,8
361.00,8
360.00,7
359.00,7
358.00,6
357.00,6
356.00,5
355.00,5
354.00,5
353.00,5
352.00,5
351.00,5
350.00,5
349.00,5
348.00,5
347.00,5
346.00,5
345.00,5
344.00,5
343.00,6
342.00,6
341.00,6
340.00,6
339.00,7
338.00,7
337.00,7
336.00,7
335.00,8
334.00,8
333.00,8
332.00,9
331.00,9
330.00,9
329.00,9
328.00,9
327.00,9
326.00,9
325.00,9
324.00,9
323.00,8
322.00,8
321.00,8
320.00,8
319.00,8
318.00,8
317.00,7
316.00,7
315.00,7
314.00,7
313.00,7
312.00,7
311.00,7
310.00,7
309.00,8
308.00,9
307.00,9
306.00,10
305.00,10
304.00,10
303.00,10
302.00,10
301.00,10
300.00,10
299.00,10
298.00,10
297.00,11
296.00,11
295.00,11
294.00,11
293.00,11
292.00,10
291.00,10
290.00,10
289.00,10
288.00,10
287.00,10
286.00,10
285.00,10
284.00,9
283.00,8
282.00,7
281.00,6
280.00,6
279.00,6
278.00,6
277.00,6
276.00,5
275.00,5
274.00,5
273.00,5
272.00,5
271.00,5
270.00,5
269.00,5
268.00,5
267.00,5
266.00,5
265.00,5
264.00,5
263.00,5
262.00,5
261.00,5
260.00,5
259.00,5
258.00,5
257.00,5
256.00,6
255.00,6
254.00,6
253.00,6
252.00,6
251.00,6
250.00,6
249.00,6
248.00,6
247.00,6
246.00,7
245.00,7
244.00,7
243.00,6
242.00,6
241.00,6
240.00,7
239.00,7
238.00,8
237.00,8
236.00,9
235.00,9
234.00,9
233.00,9
232.00,9
231.00,8
230.00,8
229.00,8
228.00,7
227.00,7
226.00,7
225.00,6
224.00,6
223.00,7
222.00,7
221.00,7
220.00,7
219.00,7
218.00,7
217.00,7
216.00,7
215.00,7
214.00,7
213.00,7
212.00,6
211.00,6
210.00,6
209.00,6
208.00,6
207.00,6
206.00,6
205.00,7
204.00,7
203.00,7
202.00,7
201.00,8
200.00,8
199.00,8
198.00,8
197.00,8
196.00,8
195.00,8
194.00,9
193.00,9
192.00,9
191.00,9
190.00,9
189.00,9
188.00,9
187.00,9
186.00,9
185.00,9
184.00,9
183.00,9
182.00,9
181.00,9
180.00,9
179.00,8
178.00,8
177.00,8
176.00,8
175.00,8
174.00,8
173.00,8
172.00,8
171.00,8
170.00,8
169.00,7
168.00,7
167.00,7
166.00,6
165.00,6
164.00,5
163.00,5
162.00,5
161.00,6
160.00,6
159.00,6
158.00,7
157.00,6
156.00,6
155.00,6
154.00,5
153.00,5
152.00,5
151.00,5
150.00,5
149.00,4
148.00,4
147.00,5
146.00,5
145.00,5
144.00,5
143.00,6
142.00,6
141.00,7
140.00,8
139.00,9
138.00,9
137.00,10
136.00,10
135.00,10
134.00,10
133.00,10
132.00,10
131.00,10
130.00,11
129.00,11
128.00,12
127.00,13
126.00,13
125.00,14
124.00,14
123.00,15
122.00,15
121.00,16
120.00,16
119.00,17
118.00,17
117.00,18
116.00,18
115.00,19
114.00,19
113.00,19
112.00,19
111.00,20
110.00,21
109.00,23
108.00,25
107.00,26
106.00,28
105.00,28
104.00,28
103.00,28
102.00,27
101.00,27
100.00,27
