Created as New Dataset,
Raman Shift / cm-1,INT
3200.00,-23
3199.00,-10
3198.00,36
3197.00,81
3196.00,120
3195.00,128
3194.00,118
3193.00,71
3192.00,41
3191.00,38
3190.00,35
3189.00,33
3188.00,30
3187.00,39
3186.00,76
3185.00,111
3184.00,139
3183.00,114
3182.00,80
3181.00,117
3180.00,151
3179.00,152
3178.00,151
3177.00,147
3176.00,113
3175.00,95
3174.00,194
3173.00,248
3172.00,172
3171.00,155
3170.00,180
3169.00,101
3168.00,19
3167.00,104
3166.00,156
3165.00,83
3164.00,46
3163.00,43
3162.00,64
3161.00,86
3160.00,59
3159.00,23
3158.00,-13
3157.00,-19
3156.00,12
3155.00,21
3154.00,19
3153.00,16
3152.00,14
3151.00,11
3150.00,9
3149.00,9
3148.00,98
3147.00,251
3146.00,332
3145.00,434
3144.00,816
3143.00,967
3142.00,343
3141.00,55
3140.00,317
3139.00,319
3138.00,174
3137.00,136
3136.00,119
3135.00,17
3134.00,-62
3133.00,-41
3132.00,-26
3131.00,-29
3130.00,-31
3129.00,-32
3128.00,-33
3127.00,-27
3126.00,17
3125.00,56
3124.00,56
3123.00,82
3122.00,158
3121.00,164
3120.00,109
3119.00,74
3118.00,48
3117.00,42
3116.00,36
3115.00,12
3114.00,-15
3113.00,-42
3112.00,-48
3111.00,-23
3110.00,53
3109.00,164
3108.00,131
3107.00,48
3106.00,6
3105.00,-17
3104.00,-1
3103.00,14
3102.00,13
3101.00,11
3100.00,10
3099.00,7
3098.00,6
3097.00,48
3096.00,108
3095.00,122
3094.00,128
3093.00,182
3092.00,232
3091.00,235
3090.00,232
3089.00,229
3088.00,225
3087.00,222
3086.00,219
3085.00,215
3084.00,159
3083.00,78
3082.00,56
3081.00,51
3080.00,32
3079.00,13
3078.00,8
3077.00,10
3076.00,29
3075.00,35
3074.00,14
3073.00,9
3072.00,27
3071.00,55
3070.00,91
3069.00,127
3068.00,159
3067.00,153
3066.00,132
3065.00,126
3064.00,119
3063.00,86
3062.00,54
3061.00,49
3060.00,40
3059.00,4
3058.00,-23
3057.00,-25
3056.00,-21
3055.00,-6
3054.00,17
3053.00,50
3052.00,55
3051.00,37
3050.00,60
3049.00,107
3048.00,119
3047.00,115
3046.00,87
3045.00,56
3044.00,61
3043.00,78
3042.00,106
3041.00,127
3040.00,99
3039.00,67
3038.00,47
3037.00,39
3036.00,67
3035.00,84
3034.00,67
3033.00,44
3032.00,12
3031.00,-14
3030.00,-31
3029.00,-28
3028.00,1
3027.00,-1
3026.00,-33
3025.00,-41
3024.00,-27
3023.00,85
3022.00,254
3021.00,219
3020.00,74
3019.00,-33
3018.00,-109
3017.00,62
3016.00,308
3015.00,263
3014.00,130
3013.00,128
3012.00,166
3011.00,182
3010.00,194
3009.00,218
3008.00,238
3007.00,217
3006.00,191
3005.00,184
3004.00,173
3003.00,112
3002.00,52
3001.00,44
3000.00,41
2999.00,40
2998.00,33
2997.00,8
2996.00,0
2995.00,77
2994.00,142
2993.00,124
2992.00,103
2991.00,109
2990.00,111
2989.00,87
2988.00,65
2987.00,61
2986.00,57
2985.00,45
2984.00,37
2983.00,45
2982.00,57
2981.00,79
2980.00,97
2979.00,97
2978.00,88
2977.00,54
2976.00,28
2975.00,46
2974.00,63
2973.00,63
2972.00,61
2971.00,59
2970.00,58
2969.00,66
2968.00,77
2967.00,96
2966.00,114
2965.00,124
2964.00,132
2963.00,131
2962.00,130
2961.00,136
2960.00,142
2959.00,141
2958.00,139
2957.00,137
2956.00,134
2955.00,131
2954.00,127
2953.00,125
2952.00,123
2951.00,120
2950.00,117
2949.00,114
2948.00,112
2947.00,109
2946.00,107
2945.00,105
2944.00,103
2943.00,120
2942.00,148
2941.00,157
2940.00,155
2939.00,157
2938.00,162
2937.00,169
2936.00,176
2935.00,157
2934.00,107
2933.00,69
2932.00,48
2931.00,37
2930.00,44
2929.00,56
2928.00,80
2927.00,99
2926.00,98
2925.00,97
2924.00,103
2923.00,109
2922.00,114
2921.00,119
2920.00,117
2919.00,115
2918.00,120
2917.00,126
2916.00,126
2915.00,123
2914.00,97
2913.00,63
2912.00,49
2911.00,47
2910.00,60
2909.00,83
2908.00,97
2907.00,101
2906.00,106
2905.00,111
2904.00,114
2903.00,112
2902.00,110
2901.00,108
2900.00,104
2899.00,93
2898.00,84
2897.00,88
2896.00,92
2895.00,86
2894.00,76
2893.00,78
2892.00,85
2891.00,58
2890.00,10
2889.00,-13
2888.00,-16
2887.00,-12
2886.00,1
2885.00,19
2884.00,46
2883.00,66
2882.00,65
2881.00,58
2880.00,24
2879.00,-11
2878.00,-19
2877.00,-19
2876.00,15
2875.00,60
2874.00,72
2873.00,63
2872.00,41
2871.00,5
2870.00,-17
2869.00,-12
2868.00,-6
2867.00,6
2866.00,16
2865.00,22
2864.00,27
2863.00,32
2862.00,38
2861.00,41
2860.00,44
2859.00,40
2858.00,32
2857.00,23
2856.00,14
2855.00,16
2854.00,40
2853.00,59
2852.00,59
2851.00,57
2850.00,54
2849.00,53
2848.00,61
2847.00,72
2846.00,110
2845.00,163
2844.00,189
2843.00,185
2842.00,178
2841.00,163
2840.00,151
2839.00,148
2838.00,145
2837.00,141
2836.00,137
2835.00,117
2834.00,91
2833.00,73
2832.00,59
2831.00,58
2830.00,74
2829.00,85
2828.00,83
2827.00,80
2826.00,73
2825.00,66
2824.00,75
2823.00,89
2822.00,97
2821.00,100
2820.00,97
2819.00,89
2818.00,82
2817.00,81
2816.00,80
2815.00,82
2814.00,84
2813.00,76
2812.00,64
2811.00,51
2810.00,38
2809.00,25
2808.00,12
2807.00,2
2806.00,-1
2805.00,-4
2804.00,-6
2803.00,-8
2802.00,-6
2801.00,-3
2800.00,9
2799.00,27
2798.00,51
2797.00,89
2796.00,123
2795.00,133
2794.00,141
2793.00,152
2792.00,165
2791.00,169
2790.00,167
2789.00,162
2788.00,154
2787.00,147
2786.00,144
2785.00,140
2784.00,119
2783.00,94
2782.00,80
2781.00,73
2780.00,69
2779.00,67
2778.00,66
2777.00,73
2776.00,79
2775.00,75
2774.00,67
2773.00,71
2772.00,81
2771.00,91
2770.00,103
2769.00,112
2768.00,111
2767.00,109
2766.00,114
2765.00,120
2764.00,125
2763.00,127
2762.00,127
2761.00,120
2760.00,109
2759.00,73
2758.00,33
2757.00,37
2756.00,60
2755.00,63
2754.00,38
2753.00,19
2752.00,17
2751.00,15
2750.00,13
2749.00,10
2748.00,31
2747.00,66
2746.00,90
2745.00,92
2744.00,95
2743.00,108
2742.00,122
2741.00,113
2740.00,96
2739.00,86
2738.00,88
2737.00,92
2736.00,104
2735.00,114
2734.00,78
2733.00,28
2732.00,8
2731.00,14
2730.00,24
2729.00,45
2728.00,65
2727.00,67
2726.00,64
2725.00,66
2724.00,71
2723.00,74
2722.00,71
2721.00,71
2720.00,91
2719.00,115
2718.00,123
2717.00,122
2716.00,117
2715.00,107
2714.00,97
2713.00,87
2712.00,77
2711.00,70
2710.00,63
2709.00,58
2708.00,56
2707.00,54
2706.00,49
2705.00,44
2704.00,40
2703.00,38
2702.00,40
2701.00,49
2700.00,57
2699.00,56
2698.00,53
2697.00,50
2696.00,47
2695.00,43
2694.00,37
2693.00,32
2692.00,35
2691.00,40
2690.00,44
2689.00,46
2688.00,46
2687.00,37
2686.00,28
2685.00,21
2684.00,16
2683.00,12
2682.00,10
2681.00,8
2680.00,6
2679.00,4
2678.00,1
2677.00,-4
2676.00,-8
2675.00,-10
2674.00,-11
2673.00,-8
2672.00,-3
2671.00,-2
2670.00,-4
2669.00,-2
2668.00,14
2667.00,30
2666.00,35
2665.00,37
2664.00,38
2663.00,39
2662.00,41
2661.00,48
2660.00,56
2659.00,67
2658.00,78
2657.00,82
2656.00,65
2655.00,48
2654.00,35
2653.00,22
2652.00,15
2651.00,13
2650.00,14
2649.00,28
2648.00,42
2647.00,35
2646.00,16
2645.00,6
2644.00,20
2643.00,34
2642.00,23
2641.00,4
2640.00,-2
2639.00,13
2638.00,29
2637.00,51
2636.00,73
2635.00,84
2634.00,87
2633.00,90
2632.00,90
2631.00,90
2630.00,88
2629.00,85
2628.00,83
2627.00,84
2626.00,84
2625.00,85
2624.00,85
2623.00,85
2622.00,86
2621.00,85
2620.00,79
2619.00,72
2618.00,67
2617.00,64
2616.00,62
2615.00,65
2614.00,68
2613.00,60
2612.00,44
2611.00,32
2610.00,29
2609.00,28
2608.00,37
2607.00,50
2606.00,58
2605.00,56
2604.00,53
2603.00,51
2602.00,48
2601.00,46
2600.00,44
2599.00,42
2598.00,40
2597.00,38
2596.00,37
2595.00,39
2594.00,39
2593.00,29
2592.00,16
2591.00,22
2590.00,46
2589.00,68
2588.00,72
2587.00,74
2586.00,69
2585.00,59
2584.00,51
2583.00,50
2582.00,49
2581.00,61
2580.00,83
2579.00,98
2578.00,84
2577.00,68
2576.00,51
2575.00,34
2574.00,25
2573.00,52
2572.00,82
2571.00,92
2570.00,87
2569.00,82
2568.00,72
2567.00,62
2566.00,60
2565.00,65
2564.00,67
2563.00,66
2562.00,63
2561.00,61
2560.00,58
2559.00,53
2558.00,38
2557.00,22
2556.00,24
2555.00,40
2554.00,54
2553.00,55
2552.00,54
2551.00,53
2550.00,51
2549.00,48
2548.00,41
2547.00,34
2546.00,28
2545.00,25
2544.00,21
2543.00,8
2542.00,-6
2541.00,-16
2540.00,-18
2539.00,-20
2538.00,-19
2537.00,-16
2536.00,-5
2535.00,19
2534.00,42
2533.00,53
2532.00,59
2531.00,64
2530.00,66
2529.00,68
2528.00,67
2527.00,65
2526.00,62
2525.00,58
2524.00,55
2523.00,49
2522.00,43
2521.00,37
2520.00,33
2519.00,30
2518.00,40
2517.00,62
2516.00,82
2515.00,84
2514.00,82
2513.00,79
2512.00,77
2511.00,75
2510.00,63
2509.00,49
2508.00,37
2507.00,32
2506.00,26
2505.00,22
2504.00,19
2503.00,16
2502.00,14
2501.00,12
2500.00,13
2499.00,17
2498.00,21
2497.00,26
2496.00,31
2495.00,34
2494.00,32
2493.00,30
2492.00,29
2491.00,27
2490.00,24
2489.00,18
2488.00,12
2487.00,13
2486.00,19
2485.00,24
2484.00,26
2483.00,27
2482.00,26
2481.00,19
2480.00,14
2479.00,13
2478.00,14
2477.00,14
2476.00,13
2475.00,11
2474.00,5
2473.00,-2
2472.00,-9
2471.00,-12
2470.00,-15
2469.00,-16
2468.00,-17
2467.00,-17
2466.00,-21
2465.00,-27
2464.00,-29
2463.00,-17
2462.00,-4
2461.00,3
2460.00,4
2459.00,6
2458.00,19
2457.00,36
2456.00,46
2455.00,43
2454.00,39
2453.00,40
2452.00,44
2451.00,48
2450.00,47
2449.00,45
2448.00,39
2447.00,26
2446.00,13
2445.00,6
2444.00,2
2443.00,-0
2442.00,7
2441.00,16
2440.00,22
2439.00,23
2438.00,24
2437.00,23
2436.00,20
2435.00,19
2434.00,23
2433.00,28
2432.00,28
2431.00,22
2430.00,17
2429.00,15
2428.00,13
2427.00,12
2426.00,14
2425.00,17
2424.00,24
2423.00,35
2422.00,46
2421.00,39
2420.00,26
2419.00,16
2418.00,16
2417.00,17
2416.00,18
2415.00,19
2414.00,20
2413.00,43
2412.00,76
2411.00,96
2410.00,60
2409.00,18
2408.00,-9
2407.00,-12
2406.00,-13
2405.00,-8
2404.00,-1
2403.00,5
2402.00,-5
2401.00,-17
2400.00,-26
2399.00,-28
2398.00,-30
2397.00,-25
2396.00,-18
2395.00,-10
2394.00,-2
2393.00,5
2392.00,11
2391.00,10
2390.00,9
2389.00,10
2388.00,13
2387.00,16
2386.00,17
2385.00,16
2384.00,16
2383.00,14
2382.00,13
2381.00,16
2380.00,28
2379.00,40
2378.00,42
2377.00,40
2376.00,38
2375.00,39
2374.00,41
2373.00,41
2372.00,40
2371.00,38
2370.00,36
2369.00,34
2368.00,32
2367.00,31
2366.00,29
2365.00,28
2364.00,23
2363.00,19
2362.00,16
2361.00,15
2360.00,15
2359.00,16
2358.00,17
2357.00,19
2356.00,21
2355.00,23
2354.00,24
2353.00,20
2352.00,16
2351.00,12
2350.00,9
2349.00,6
2348.00,3
2347.00,1
2346.00,-1
2345.00,-6
2344.00,-13
2343.00,-19
2342.00,-23
2341.00,-27
2340.00,-29
2339.00,-30
2338.00,-30
2337.00,-21
2336.00,-2
2335.00,17
2334.00,25
2333.00,29
2332.00,33
2331.00,35
2330.00,37
2329.00,38
2328.00,36
2327.00,34
2326.00,32
2325.00,30
2324.00,28
2323.00,25
2322.00,19
2321.00,14
2320.00,11
2319.00,9
2318.00,6
2317.00,5
2316.00,4
2315.00,4
2314.00,8
2313.00,12
2312.00,14
2311.00,15
2310.00,16
2309.00,14
2308.00,10
2307.00,7
2306.00,5
2305.00,4
2304.00,4
2303.00,7
2302.00,9
2301.00,10
2300.00,4
2299.00,-3
2298.00,-7
2297.00,-8
2296.00,-10
2295.00,-7
2294.00,-1
2293.00,4
2292.00,7
2291.00,10
2290.00,12
2289.00,12
2288.00,10
2287.00,9
2286.00,8
2285.00,7
2284.00,5
2283.00,0
2282.00,-4
2281.00,-8
2280.00,-12
2279.00,-15
2278.00,-16
2277.00,-15
2276.00,-15
2275.00,-11
2274.00,-6
2273.00,-3
2272.00,-2
2271.00,-1
2270.00,-1
2269.00,-3
2268.00,-5
2267.00,-6
2266.00,-8
2265.00,-9
2264.00,-10
2263.00,-11
2262.00,-11
2261.00,-13
2260.00,-15
2259.00,-16
2258.00,-11
2257.00,-4
2256.00,2
2255.00,4
2254.00,5
2253.00,6
2252.00,5
2251.00,4
2250.00,1
2249.00,-7
2248.00,-15
2247.00,-20
2246.00,-18
2245.00,-16
2244.00,-15
2243.00,-15
2242.00,-15
2241.00,-18
2240.00,-22
2239.00,-26
2238.00,-25
2237.00,-23
2236.00,-21
2235.00,-19
2234.00,-17
2233.00,-16
2232.00,-20
2231.00,-23
2230.00,-26
2229.00,-24
2228.00,-22
2227.00,-18
2226.00,-11
2225.00,-3
2224.00,-0
2223.00,-5
2222.00,-11
2221.00,-13
2220.00,-9
2219.00,-5
2218.00,-0
2217.00,5
2216.00,9
2215.00,11
2214.00,10
2213.00,9
2212.00,7
2211.00,5
2210.00,2
2209.00,2
2208.00,1
2207.00,1
2206.00,-0
2205.00,-1
2204.00,-3
2203.00,-11
2202.00,-22
2201.00,-31
2200.00,-35
2199.00,-38
2198.00,-39
2197.00,-33
2196.00,-26
2195.00,-21
2194.00,-22
2193.00,-24
2192.00,-20
2191.00,1
2190.00,22
2189.00,35
2188.00,34
2187.00,33
2186.00,32
2185.00,30
2184.00,28
2183.00,26
2182.00,24
2181.00,22
2180.00,26
2179.00,34
2178.00,43
2177.00,46
2176.00,44
2175.00,43
2174.00,42
2173.00,42
2172.00,41
2171.00,34
2170.00,23
2169.00,13
2168.00,9
2167.00,7
2166.00,6
2165.00,4
2164.00,2
2163.00,1
2162.00,2
2161.00,4
2160.00,5
2159.00,6
2158.00,6
2157.00,6
2156.00,5
2155.00,4
2154.00,3
2153.00,1
2152.00,-0
2151.00,-2
2150.00,-6
2149.00,-11
2148.00,-15
2147.00,-18
2146.00,-20
2145.00,-21
2144.00,-16
2143.00,-9
2142.00,-3
2141.00,-1
2140.00,0
2139.00,1
2138.00,-1
2137.00,-4
2136.00,-3
2135.00,15
2134.00,35
2133.00,54
2132.00,54
2131.00,51
2130.00,49
2129.00,48
2128.00,48
2127.00,46
2126.00,40
2125.00,33
2124.00,27
2123.00,23
2122.00,20
2121.00,17
2120.00,16
2119.00,15
2118.00,15
2117.00,20
2116.00,26
2115.00,32
2114.00,32
2113.00,31
2112.00,30
2111.00,28
2110.00,27
2109.00,25
2108.00,21
2107.00,16
2106.00,12
2105.00,9
2104.00,7
2103.00,6
2102.00,14
2101.00,25
2100.00,34
2099.00,32
2098.00,27
2097.00,22
2096.00,26
2095.00,32
2094.00,38
2093.00,33
2092.00,24
2091.00,15
2090.00,9
2089.00,5
2088.00,0
2087.00,-1
2086.00,-2
2085.00,-3
2084.00,2
2083.00,10
2082.00,17
2081.00,18
2080.00,13
2079.00,9
2078.00,4
2077.00,-1
2076.00,-6
2075.00,-6
2074.00,0
2073.00,7
2072.00,14
2071.00,23
2070.00,32
2069.00,36
2068.00,33
2067.00,30
2066.00,31
2065.00,43
2064.00,55
2063.00,63
2062.00,58
2061.00,52
2060.00,46
2059.00,42
2058.00,38
2057.00,34
2056.00,28
2055.00,23
2054.00,17
2053.00,13
2052.00,10
2051.00,7
2050.00,4
2049.00,2
2048.00,0
2047.00,-0
2046.00,0
2045.00,0
2044.00,4
2043.00,10
2042.00,16
2041.00,22
2040.00,28
2039.00,34
2038.00,41
2037.00,50
2036.00,58
2035.00,62
2034.00,57
2033.00,53
2032.00,48
2031.00,43
2030.00,37
2029.00,34
2028.00,35
2027.00,37
2026.00,38
2025.00,35
2024.00,33
2023.00,29
2022.00,23
2021.00,16
2020.00,10
2019.00,8
2018.00,7
2017.00,7
2016.00,7
2015.00,9
2014.00,10
2013.00,14
2012.00,20
2011.00,27
2010.00,33
2009.00,39
2008.00,44
2007.00,47
2006.00,45
2005.00,42
2004.00,40
2003.00,44
2002.00,47
2001.00,50
2000.00,50
1999.00,50
1998.00,49
1997.00,49
1996.00,49
1995.00,50
1994.00,53
1993.00,57
1992.00,62
1991.00,62
1990.00,59
1989.00,55
1988.00,52
1987.00,49
1986.00,46
1985.00,43
1984.00,41
1983.00,40
1982.00,39
1981.00,37
1980.00,36
1979.00,34
1978.00,35
1977.00,36
1976.00,37
1975.00,36
1974.00,33
1973.00,31
1972.00,29
1971.00,29
1970.00,29
1969.00,35
1968.00,51
1967.00,66
1966.00,77
1965.00,75
1964.00,72
1963.00,69
1962.00,64
1961.00,59
1960.00,54
1959.00,50
1958.00,46
1957.00,42
1956.00,37
1955.00,32
1954.00,28
1953.00,24
1952.00,22
1951.00,19
1950.00,19
1949.00,26
1948.00,33
1947.00,38
1946.00,35
1945.00,31
1944.00,28
1943.00,33
1942.00,40
1941.00,47
1940.00,49
1939.00,47
1938.00,45
1937.00,43
1936.00,41
1935.00,39
1934.00,39
1933.00,46
1932.00,53
1931.00,60
1930.00,62
1929.00,64
1928.00,65
1927.00,64
1926.00,61
1925.00,58
1924.00,57
1923.00,56
1922.00,56
1921.00,56
1920.00,57
1919.00,58
1918.00,58
1917.00,53
1916.00,48
1915.00,43
1914.00,39
1913.00,36
1912.00,32
1911.00,35
1910.00,43
1909.00,51
1908.00,54
1907.00,49
1906.00,44
1905.00,40
1904.00,44
1903.00,49
1902.00,54
1901.00,56
1900.00,59
1899.00,61
1898.00,62
1897.00,61
1896.00,61
1895.00,60
1894.00,57
1893.00,54
1892.00,51
1891.00,54
1890.00,57
1889.00,59
1888.00,58
1887.00,55
1886.00,52
1885.00,53
1884.00,58
1883.00,63
1882.00,66
1881.00,63
1880.00,60
1879.00,56
1878.00,53
1877.00,49
1876.00,45
1875.00,43
1874.00,41
1873.00,39
1872.00,39
1871.00,41
1870.00,42
1869.00,43
1868.00,45
1867.00,46
1866.00,48
1865.00,47
1864.00,46
1863.00,45
1862.00,44
1861.00,42
1860.00,40
1859.00,38
1858.00,39
1857.00,39
1856.00,40
1855.00,40
1854.00,41
1853.00,41
1852.00,40
1851.00,36
1850.00,33
1849.00,31
1848.00,30
1847.00,29
1846.00,29
1845.00,33
1844.00,38
1843.00,43
1842.00,44
1841.00,42
1840.00,41
1839.00,40
1838.00,40
1837.00,41
1836.00,41
1835.00,42
1834.00,42
1833.00,43
1832.00,42
1831.00,41
1830.00,40
1829.00,39
1828.00,37
1827.00,36
1826.00,34
1825.00,32
1824.00,30
1823.00,28
1822.00,26
1821.00,23
1820.00,21
1819.00,19
1818.00,19
1817.00,19
1816.00,19
1815.00,20
1814.00,22
1813.00,24
1812.00,23
1811.00,19
1810.00,16
1809.00,15
1808.00,22
1807.00,29
1806.00,35
1805.00,38
1804.00,39
1803.00,41
1802.00,40
1801.00,37
1800.00,34
1799.00,31
1798.00,29
1797.00,26
1796.00,24
1795.00,22
1794.00,21
1793.00,20
1792.00,18
1791.00,16
1790.00,15
1789.00,15
1788.00,22
1787.00,30
1786.00,37
1785.00,38
1784.00,36
1783.00,34
1782.00,33
1781.00,35
1780.00,37
1779.00,38
1778.00,36
1777.00,35
1776.00,33
1775.00,32
1774.00,32
1773.00,32
1772.00,32
1771.00,36
1770.00,40
1769.00,43
1768.00,45
1767.00,46
1766.00,47
1765.00,46
1764.00,42
1763.00,37
1762.00,33
1761.00,34
1760.00,35
1759.00,36
1758.00,41
1757.00,50
1756.00,58
1755.00,66
1754.00,71
1753.00,76
1752.00,80
1751.00,81
1750.00,79
1749.00,77
1748.00,75
1747.00,76
1746.00,76
1745.00,76
1744.00,74
1743.00,72
1742.00,70
1741.00,68
1740.00,68
1739.00,68
1738.00,68
1737.00,66
1736.00,64
1735.00,63
1734.00,61
1733.00,61
1732.00,60
1731.00,62
1730.00,73
1729.00,86
1728.00,99
1727.00,104
1726.00,106
1725.00,107
1724.00,108
1723.00,106
1722.00,103
1721.00,101
1720.00,98
1719.00,94
1718.00,91
1717.00,89
1716.00,89
1715.00,90
1714.00,90
1713.00,86
1712.00,81
1711.00,76
1710.00,74
1709.00,75
1708.00,76
1707.00,77
1706.00,77
1705.00,78
1704.00,78
1703.00,77
1702.00,73
1701.00,70
1700.00,68
1699.00,75
1698.00,84
1697.00,92
1696.00,95
1695.00,92
1694.00,88
1693.00,85
1692.00,81
1691.00,78
1690.00,75
1689.00,73
1688.00,74
1687.00,75
1686.00,76
1685.00,76
1684.00,75
1683.00,74
1682.00,78
1681.00,86
1680.00,95
1679.00,102
1678.00,100
1677.00,97
1676.00,95
1675.00,94
1674.00,96
1673.00,98
1672.00,100
1671.00,105
1670.00,109
1669.00,114
1668.00,117
1667.00,117
1666.00,118
1665.00,120
1664.00,128
1663.00,137
1662.00,146
1661.00,148
1660.00,143
1659.00,138
1658.00,134
1657.00,132
1656.00,130
1655.00,129
1654.00,130
1653.00,135
1652.00,140
1651.00,145
1650.00,143
1649.00,140
1648.00,137
1647.00,134
1646.00,131
1645.00,128
1644.00,126
1643.00,128
1642.00,131
1641.00,134
1640.00,136
1639.00,136
1638.00,135
1637.00,134
1636.00,131
1635.00,126
1634.00,121
1633.00,117
1632.00,113
1631.00,109
1630.00,105
1629.00,108
1628.00,116
1627.00,124
1626.00,130
1625.00,132
1624.00,133
1623.00,134
1622.00,138
1621.00,144
1620.00,150
1619.00,156
1618.00,159
1617.00,162
1616.00,165
1615.00,166
1614.00,165
1613.00,163
1612.00,162
1611.00,167
1610.00,175
1609.00,182
1608.00,187
1607.00,184
1606.00,182
1605.00,179
1604.00,178
1603.00,177
1602.00,176
1601.00,175
1600.00,169
1599.00,163
1598.00,157
1597.00,152
1596.00,148
1595.00,144
1594.00,140
1593.00,139
1592.00,137
1591.00,136
1590.00,139
1589.00,152
1588.00,165
1587.00,177
1586.00,180
1585.00,179
1584.00,179
1583.00,177
1582.00,175
1581.00,173
1580.00,171
1579.00,171
1578.00,174
1577.00,177
1576.00,180
1575.00,180
1574.00,179
1573.00,178
1572.00,177
1571.00,177
1570.00,177
1569.00,176
1568.00,177
1567.00,179
1566.00,181
1565.00,182
1564.00,184
1563.00,186
1562.00,188
1561.00,188
1560.00,185
1559.00,183
1558.00,180
1557.00,177
1556.00,174
1555.00,171
1554.00,168
1553.00,163
1552.00,158
1551.00,153
1550.00,148
1549.00,144
1548.00,140
1547.00,136
1546.00,130
1545.00,123
1544.00,117
1543.00,112
1542.00,113
1541.00,114
1540.00,114
1539.00,114
1538.00,112
1537.00,111
1536.00,109
1535.00,106
1534.00,103
1533.00,99
1532.00,99
1531.00,104
1530.00,110
1529.00,115
1528.00,119
1527.00,121
1526.00,123
1525.00,125
1524.00,123
1523.00,121
1522.00,119
1521.00,117
1520.00,116
1519.00,115
1518.00,114
1517.00,113
1516.00,111
1515.00,110
1514.00,109
1513.00,114
1512.00,121
1511.00,127
1510.00,131
1509.00,130
1508.00,128
1507.00,126
1506.00,124
1505.00,121
1504.00,119
1503.00,117
1502.00,114
1501.00,112
1500.00,110
1499.00,108
1498.00,108
1497.00,107
1496.00,106
1495.00,105
1494.00,104
1493.00,102
1492.00,101
1491.00,107
1490.00,116
1489.00,125
1488.00,132
1487.00,133
1486.00,134
1485.00,134
1484.00,133
1483.00,131
1482.00,128
1481.00,126
1480.00,123
1479.00,119
1478.00,116
1477.00,113
1476.00,112
1475.00,111
1474.00,110
1473.00,110
1472.00,114
1471.00,118
1470.00,121
1469.00,124
1468.00,126
1467.00,128
1466.00,130
1465.00,130
1464.00,129
1463.00,128
1462.00,128
1461.00,135
1460.00,144
1459.00,153
1458.00,160
1457.00,161
1456.00,161
1455.00,162
1454.00,161
1453.00,160
1452.00,158
1451.00,156
1450.00,155
1449.00,154
1448.00,153
1447.00,152
1446.00,150
1445.00,147
1444.00,145
1443.00,143
1442.00,140
1441.00,138
1440.00,136
1439.00,136
1438.00,138
1437.00,140
1436.00,142
1435.00,142
1434.00,139
1433.00,137
1432.00,136
1431.00,137
1430.00,140
1429.00,143
1428.00,144
1427.00,140
1426.00,136
1425.00,132
1424.00,129
1423.00,129
1422.00,128
1421.00,128
1420.00,128
1419.00,127
1418.00,127
1417.00,126
1416.00,128
1415.00,130
1414.00,132
1413.00,135
1412.00,137
1411.00,140
1410.00,143
1409.00,145
1408.00,144
1407.00,143
1406.00,141
1405.00,144
1404.00,151
1403.00,158
1402.00,165
1401.00,166
1400.00,163
1399.00,160
1398.00,157
1397.00,154
1396.00,152
1395.00,150
1394.00,147
1393.00,145
1392.00,142
1391.00,140
1390.00,138
1389.00,139
1388.00,141
1387.00,143
1386.00,145
1385.00,150
1384.00,154
1383.00,158
1382.00,158
1381.00,154
1380.00,151
1379.00,147
1378.00,147
1377.00,149
1376.00,150
1375.00,152
1374.00,150
1373.00,148
1372.00,145
1371.00,142
1370.00,135
1369.00,127
1368.00,119
1367.00,114
1366.00,117
1365.00,121
1364.00,125
1363.00,128
1362.00,130
1361.00,132
1360.00,134
1359.00,134
1358.00,131
1357.00,127
1356.00,124
1355.00,124
1354.00,126
1353.00,128
1352.00,130
1351.00,131
1350.00,132
1349.00,134
1348.00,135
1347.00,142
1346.00,149
1345.00,157
1344.00,165
1343.00,176
1342.00,188
1341.00,199
1340.00,207
1339.00,205
1338.00,202
1337.00,200
1336.00,201
1335.00,211
1334.00,222
1333.00,232
1332.00,236
1331.00,233
1330.00,229
1329.00,225
1328.00,223
1327.00,223
1326.00,222
1325.00,221
1324.00,219
1323.00,217
1322.00,214
1321.00,212
1320.00,208
1319.00,205
1318.00,201
1317.00,197
1316.00,194
1315.00,191
1314.00,188
1313.00,185
1312.00,184
1311.00,183
1310.00,182
1309.00,181
1308.00,179
1307.00,177
1306.00,175
1305.00,172
1304.00,169
1303.00,166
1302.00,163
1301.00,161
1300.00,158
1299.00,156
1298.00,154
1297.00,151
1296.00,148
1295.00,145
1294.00,142
1293.00,138
1292.00,135
1291.00,132
1290.00,129
1289.00,127
1288.00,126
1287.00,125
1286.00,124
1285.00,122
1284.00,119
1283.00,116
1282.00,113
1281.00,113
1280.00,113
1279.00,114
1278.00,115
1277.00,115
1276.00,114
1275.00,112
1274.00,111
1273.00,107
1272.00,102
1271.00,97
1270.00,92
1269.00,90
1268.00,88
1267.00,87
1266.00,86
1265.00,85
1264.00,85
1263.00,85
1262.00,84
1261.00,82
1260.00,79
1259.00,76
1258.00,73
1257.00,77
1256.00,82
1255.00,87
1254.00,91
1253.00,91
1252.00,90
1251.00,89
1250.00,89
1249.00,90
1248.00,92
1247.00,94
1246.00,95
1245.00,93
1244.00,91
1243.00,89
1242.00,87
1241.00,85
1240.00,84
1239.00,83
1238.00,82
1237.00,86
1236.00,91
1235.00,96
1234.00,100
1233.00,99
1232.00,97
1231.00,96
1230.00,94
1229.00,93
1228.00,92
1227.00,91
1226.00,90
1225.00,90
1224.00,90
1223.00,90
1222.00,90
1221.00,88
1220.00,85
1219.00,83
1218.00,81
1217.00,79
1216.00,76
1215.00,74
1214.00,72
1213.00,69
1212.00,66
1211.00,63
1210.00,61
1209.00,63
1208.00,66
1207.00,69
1206.00,71
1205.00,71
1204.00,71
1203.00,71
1202.00,72
1201.00,78
1200.00,86
1199.00,93
1198.00,99
1197.00,100
1196.00,100
1195.00,100
1194.00,100
1193.00,99
1192.00,98
1191.00,97
1190.00,96
1189.00,97
1188.00,98
1187.00,98
1186.00,99
1185.00,96
1184.00,91
1183.00,87
1182.00,83
1181.00,84
1180.00,87
1179.00,89
1178.00,92
1177.00,98
1176.00,104
1175.00,111
1174.00,117
1173.00,120
1172.00,120
1171.00,120
1170.00,120
1169.00,125
1168.00,132
1167.00,139
1166.00,146
1165.00,148
1164.00,146
1163.00,144
1162.00,142
1161.00,139
1160.00,135
1159.00,131
1158.00,127
1157.00,123
1156.00,119
1155.00,115
1154.00,111
1153.00,108
1152.00,107
1151.00,106
1150.00,105
1149.00,103
1148.00,100
1147.00,97
1146.00,94
1145.00,90
1144.00,87
1143.00,83
1142.00,79
1141.00,76
1140.00,80
1139.00,85
1138.00,90
1137.00,94
1136.00,92
1135.00,90
1134.00,87
1133.00,85
1132.00,85
1131.00,85
1130.00,85
1129.00,85
1128.00,84
1127.00,81
1126.00,79
1125.00,77
1124.00,75
1123.00,75
1122.00,74
1121.00,73
1120.00,71
1119.00,68
1118.00,65
1117.00,63
1116.00,60
1115.00,56
1114.00,53
1113.00,50
1112.00,48
1111.00,47
1110.00,46
1109.00,45
1108.00,46
1107.00,48
1106.00,50
1105.00,53
1104.00,54
1103.00,48
1102.00,42
1101.00,36
1100.00,30
1099.00,26
1098.00,23
1097.00,19
1096.00,15
1095.00,16
1094.00,18
1093.00,20
1092.00,23
1091.00,28
1090.00,35
1089.00,42
1088.00,49
1087.00,51
1086.00,49
1085.00,47
1084.00,44
1083.00,43
1082.00,45
1081.00,47
1080.00,48
1079.00,49
1078.00,48
1077.00,47
1076.00,47
1075.00,46
1074.00,46
1073.00,46
1072.00,46
1071.00,45
1070.00,41
1069.00,36
1068.00,31
1067.00,26
1066.00,25
1065.00,25
1064.00,24
1063.00,24
1062.00,23
1061.00,21
1060.00,20
1059.00,18
1058.00,16
1057.00,12
1056.00,8
1055.00,4
1054.00,0
1053.00,-2
1052.00,-4
1051.00,-7
1050.00,-9
1049.00,-9
1048.00,-9
1047.00,-10
1046.00,-10
1045.00,-11
1044.00,-12
1043.00,-13
1042.00,-14
1041.00,-16
1040.00,-19
1039.00,-21
1038.00,-24
1037.00,-27
1036.00,-32
1035.00,-36
1034.00,-40
1033.00,-42
1032.00,-37
1031.00,-31
1030.00,-25
1029.00,-20
1028.00,-21
1027.00,-23
1026.00,-25
1025.00,-27
1024.00,-25
1023.00,-22
1022.00,-19
1021.00,-15
1020.00,-15
1019.00,-16
1018.00,-18
1017.00,-19
1016.00,-20
1015.00,-18
1014.00,-16
1013.00,-13
1012.00,-12
1011.00,-14
1010.00,-17
1009.00,-20
1008.00,-23
1007.00,-21
1006.00,-18
1005.00,-16
1004.00,-13
1003.00,-13
1002.00,-15
1001.00,-18
1000.00,-21
999.00,-23
998.00,-26
997.00,-28
996.00,-31
995.00,-32
994.00,-30
993.00,-26
992.00,-23
991.00,-21
990.00,-20
989.00,-19
988.00,-19
987.00,-18
986.00,-14
985.00,-8
984.00,-1
983.00,5
982.00,9
981.00,5
980.00,1
979.00,-2
978.00,-6
977.00,-7
976.00,-8
975.00,-9
974.00,-10
973.00,-11
972.00,-12
971.00,-14
970.00,-15
969.00,-15
968.00,-12
967.00,-9
966.00,-6
965.00,-4
964.00,-8
963.00,-12
962.00,-16
961.00,-20
960.00,-22
959.00,-23
958.00,-25
957.00,-26
956.00,-28
955.00,-29
954.00,-31
953.00,-33
952.00,-33
951.00,-32
950.00,-30
949.00,-29
948.00,-28
947.00,-28
946.00,-28
945.00,-28
944.00,-29
943.00,-24
942.00,-19
941.00,-13
940.00,-7
939.00,-3
938.00,-2
937.00,-1
936.00,-0
935.00,-1
934.00,-6
933.00,-11
932.00,-16
931.00,-22
930.00,-24
929.00,-26
928.00,-28
927.00,-29
926.00,-29
925.00,-26
924.00,-23
923.00,-20
922.00,-17
921.00,-14
920.00,-12
919.00,-9
918.00,-7
917.00,-6
916.00,-7
915.00,-8
914.00,-8
913.00,-8
912.00,-8
911.00,-7
910.00,-6
909.00,-6
908.00,-10
907.00,-14
906.00,-18
905.00,-22
904.00,-23
903.00,-22
902.00,-22
901.00,-22
900.00,-21
899.00,-19
898.00,-17
897.00,-14
896.00,-13
895.00,-14
894.00,-16
893.00,-19
892.00,-21
891.00,-23
890.00,-25
889.00,-27
888.00,-30
887.00,-31
886.00,-31
885.00,-30
884.00,-30
883.00,-29
882.00,-25
881.00,-20
880.00,-15
879.00,-11
878.00,-8
877.00,-8
876.00,-8
875.00,-8
874.00,-7
873.00,-5
872.00,-3
871.00,-1
870.00,1
869.00,-1
868.00,-3
867.00,-6
866.00,-9
865.00,-10
864.00,-8
863.00,-6
862.00,-5
861.00,-3
860.00,-2
859.00,-1
858.00,-0
857.00,1
856.00,2
855.00,3
854.00,5
853.00,6
852.00,9
851.00,12
850.00,16
849.00,20
848.00,24
847.00,23
846.00,21
845.00,19
844.00,17
843.00,16
842.00,18
841.00,20
840.00,22
839.00,24
838.00,24
837.00,23
836.00,22
835.00,22
834.00,21
833.00,19
832.00,17
831.00,16
830.00,14
829.00,12
828.00,10
827.00,8
826.00,6
825.00,6
824.00,6
823.00,7
822.00,7
821.00,7
820.00,7
819.00,6
818.00,5
817.00,4
816.00,3
815.00,1
814.00,-1
813.00,-3
812.00,-5
811.00,-8
810.00,-11
809.00,-13
808.00,-16
807.00,-15
806.00,-14
805.00,-12
804.00,-10
803.00,-9
802.00,-11
801.00,-12
800.00,-14
799.00,-15
798.00,-8
797.00,2
796.00,12
795.00,22
794.00,29
793.00,34
792.00,38
791.00,42
790.00,45
789.00,43
788.00,39
787.00,35
786.00,32
785.00,31
784.00,34
783.00,37
782.00,39
781.00,42
780.00,42
779.00,41
778.00,39
777.00,38
776.00,37
775.00,36
774.00,35
773.00,34
772.00,32
771.00,31
770.00,29
769.00,27
768.00,25
767.00,25
766.00,26
765.00,28
764.00,29
763.00,30
762.00,29
761.00,27
760.00,26
759.00,24
758.00,23
757.00,22
756.00,21
755.00,20
754.00,19
753.00,21
752.00,23
751.00,26
750.00,29
749.00,32
748.00,36
747.00,41
746.00,45
745.00,49
744.00,53
743.00,55
742.00,58
741.00,61
740.00,64
739.00,65
738.00,66
737.00,67
736.00,68
735.00,67
734.00,66
733.00,64
732.00,63
731.00,61
730.00,58
729.00,55
728.00,52
727.00,49
726.00,51
725.00,55
724.00,59
723.00,62
722.00,65
721.00,66
720.00,67
719.00,68
718.00,69
717.00,67
716.00,63
715.00,59
714.00,55
713.00,52
712.00,52
711.00,53
710.00,54
709.00,55
708.00,57
707.00,60
706.00,63
705.00,66
704.00,69
703.00,72
702.00,76
701.00,79
700.00,82
699.00,83
698.00,82
697.00,79
696.00,77
695.00,75
694.00,72
693.00,69
692.00,66
691.00,62
690.00,62
689.00,70
688.00,80
687.00,90
686.00,99
685.00,101
684.00,98
683.00,95
682.00,91
681.00,88
680.00,89
679.00,90
678.00,91
677.00,92
676.00,92
675.00,90
674.00,87
673.00,85
672.00,82
671.00,79
670.00,75
669.00,72
668.00,69
667.00,67
666.00,71
665.00,75
664.00,80
663.00,84
662.00,86
661.00,84
660.00,82
659.00,80
658.00,79
657.00,78
656.00,78
655.00,77
654.00,77
653.00,77
652.00,76
651.00,75
650.00,74
649.00,73
648.00,72
647.00,71
646.00,69
645.00,68
644.00,66
643.00,68
642.00,69
641.00,71
640.00,72
639.00,74
638.00,74
637.00,74
636.00,74
635.00,74
634.00,81
633.00,92
632.00,102
631.00,112
630.00,121
629.00,126
628.00,130
627.00,134
626.00,138
625.00,139
624.00,136
623.00,132
622.00,129
621.00,125
620.00,124
619.00,124
618.00,124
617.00,125
616.00,124
615.00,123
614.00,121
613.00,120
612.00,118
611.00,116
610.00,113
609.00,110
608.00,107
607.00,104
606.00,102
605.00,100
604.00,98
603.00,96
602.00,94
601.00,94
600.00,95
599.00,95
598.00,96
597.00,97
596.00,100
595.00,102
594.00,105
593.00,108
592.00,111
591.00,112
590.00,114
589.00,115
588.00,117
587.00,116
586.00,115
585.00,113
584.00,112
583.00,111
582.00,111
581.00,111
580.00,112
579.00,112
578.00,114
577.00,117
576.00,121
575.00,125
574.00,128
573.00,128
572.00,126
571.00,124
570.00,123
569.00,121
568.00,120
567.00,118
566.00,117
565.00,116
564.00,116
563.00,120
562.00,124
561.00,128
560.00,133
559.00,133
558.00,131
557.00,128
556.00,126
555.00,124
554.00,126
553.00,129
552.00,132
551.00,135
550.00,138
549.00,137
548.00,135
547.00,133
546.00,132
545.00,131
544.00,130
543.00,130
542.00,129
541.00,129
540.00,130
539.00,132
538.00,134
537.00,136
536.00,138
535.00,137
534.00,134
533.00,132
532.00,129
531.00,128
530.00,132
529.00,136
528.00,141
527.00,146
526.00,150
525.00,154
524.00,157
523.00,160
522.00,163
521.00,162
520.00,157
519.00,151
518.00,146
517.00,141
516.00,138
515.00,137
514.00,136
513.00,135
512.00,135
511.00,137
510.00,140
509.00,144
508.00,147
507.00,149
506.00,146
505.00,143
504.00,141
503.00,138
502.00,137
501.00,138
500.00,139
499.00,141
498.00,142
497.00,141
496.00,138
495.00,134
494.00,131
493.00,128
492.00,128
491.00,128
490.00,129
489.00,129
488.00,130
487.00,128
486.00,127
485.00,125
484.00,124
483.00,122
482.00,121
481.00,121
480.00,120
479.00,119
478.00,118
477.00,118
476.00,118
475.00,118
474.00,118
473.00,120
472.00,125
471.00,129
470.00,134
469.00,138
468.00,141
467.00,142
466.00,143
465.00,143
464.00,144
463.00,143
462.00,142
461.00,140
460.00,139
459.00,138
458.00,136
457.00,135
456.00,133
455.00,132
454.00,131
453.00,133
452.00,135
451.00,137
450.00,138
449.00,140
448.00,144
447.00,147
446.00,150
445.00,153
444.00,155
443.00,155
442.00,155
441.00,155
440.00,155
439.00,155
438.00,155
437.00,155
436.00,155
435.00,155
434.00,155
433.00,154
432.00,153
431.00,152
430.00,151
429.00,155
428.00,160
427.00,164
426.00,169
425.00,173
424.00,173
423.00,172
422.00,171
421.00,169
420.00,168
419.00,170
418.00,171
417.00,173
416.00,174
415.00,176
414.00,177
413.00,179
412.00,181
411.00,182
410.00,183
409.00,182
408.00,181
407.00,180
406.00,180
405.00,180
404.00,183
403.00,186
402.00,190
401.00,193
400.00,194
399.00,191
398.00,189
397.00,186
396.00,183
395.00,181
394.00,181
393.00,180
392.00,179
391.00,178
390.00,177
389.00,175
388.00,174
387.00,172
386.00,170
385.00,170
384.00,170
383.00,171
382.00,171
381.00,171
380.00,173
379.00,174
378.00,176
377.00,178
376.00,179
375.00,178
374.00,175
373.00,172
372.00,169
371.00,167
370.00,164
369.00,161
368.00,158
367.00,155
366.00,152
365.00,152
364.00,153
363.00,154
362.00,155
361.00,156
360.00,159
359.00,161
358.00,164
357.00,167
356.00,169
355.00,172
354.00,175
353.00,178
352.00,180
351.00,183
350.00,182
349.00,180
348.00,178
347.00,176
346.00,175
345.00,174
344.00,174
343.00,174
342.00,174
341.00,174
340.00,176
339.00,179
338.00,182
337.00,185
336.00,188
335.00,193
334.00,197
333.00,201
332.00,206
331.00,210
330.00,210
329.00,209
328.00,209
327.00,208
326.00,207
325.00,203
324.00,197
323.00,192
322.00,187
321.00,183
320.00,182
319.00,182
318.00,182
317.00,182
316.00,181
315.00,179
314.00,177
313.00,175
312.00,173
311.00,171
310.00,174
309.00,177
308.00,181
307.00,184
306.00,187
305.00,191
304.00,195
303.00,200
302.00,204
301.00,208
300.00,209
299.00,209
298.00,209
297.00,210
296.00,210
295.00,209
294.00,207
293.00,205
292.00,204
291.00,202
290.00,203
289.00,204
288.00,205
287.00,206
286.00,207
285.00,206
284.00,204
283.00,202
282.00,200
281.00,198
280.00,195
279.00,192
278.00,189
277.00,186
276.00,183
275.00,181
274.00,179
273.00,177
272.00,176
271.00,174
270.00,171
269.00,168
268.00,165
267.00,161
266.00,158
265.00,157
264.00,157
263.00,157
262.00,157
261.00,157
260.00,156
259.00,156
258.00,155
257.00,155
256.00,154
255.00,159
254.00,168
253.00,178
252.00,187
251.00,197
250.00,202
249.00,200
248.00,198
247.00,196
246.00,195
245.00,193
244.00,193
243.00,192
242.00,191
241.00,190
240.00,189
239.00,187
238.00,185
237.00,183
236.00,181
235.00,179
234.00,177
233.00,174
232.00,171
231.00,169
230.00,166
229.00,166
228.00,165
227.00,165
226.00,165
225.00,164
224.00,163
223.00,162
222.00,160
221.00,159
220.00,158
219.00,158
218.00,159
217.00,160
216.00,160
215.00,161
214.00,160
213.00,159
212.00,157
211.00,155
210.00,153
209.00,153
208.00,153
207.00,154
206.00,154
205.00,155
204.00,154
203.00,154
202.00,153
201.00,152
200.00,151
199.00,149
198.00,145
197.00,141
196.00,137
195.00,133
194.00,130
193.00,132
192.00,134
191.00,136
190.00,137
189.00,139
188.00,137
187.00,135
186.00,133
185.00,131
184.00,128
183.00,124
182.00,119
181.00,114
180.00,109
179.00,104
178.00,103
177.00,103
176.00,104
175.00,104
174.00,104
173.00,103
172.00,100
171.00,98
170.00,95
169.00,93
168.00,91
167.00,92
166.00,92
165.00,92
164.00,93
163.00,93
162.00,94
161.00,96
160.00,97
159.00,98
158.00,99
157.00,98
156.00,97
155.00,95
154.00,94
153.00,93
152.00,91
151.00,89
150.00,87
149.00,85
148.00,83
147.00,80
146.00,77
145.00,73
144.00,70
143.00,66
142.00,62
141.00,56
140.00,50
139.00,44
138.00,38
137.00,32
136.00,27
135.00,22
134.00,18
133.00,13
132.00,8
131.00,7
130.00,5
129.00,4
128.00,2
127.00,1
126.00,-0
125.00,-2
124.00,-3
123.00,-4
122.00,-5
121.00,-5
120.00,-5
119.00,-4
118.00,-4
117.00,-4
116.00,-4
115.00,-7
114.00,-11
113.00,-14
112.00,-17
111.00,-21
110.00,-31
109.00,-41
108.00,-51
107.00,-62
106.00,-71
105.00,-77
104.00,-82
103.00,-86
102.00,-91
101.00,-97
100.00,-103
