Created as New Dataset,
Raman Shift / cm-1,INT
3200.00,-11
3199.00,11
3198.00,12
3197.00,39
3196.00,84
3195.00,94
3194.00,94
3193.00,94
3192.00,76
3191.00,32
3190.00,18
3189.00,19
3188.00,19
3187.00,44
3186.00,127
3185.00,168
3184.00,170
3183.00,226
3182.00,283
3181.00,224
3180.00,143
3179.00,61
3178.00,-21
3177.00,-93
3176.00,-50
3175.00,17
3174.00,25
3173.00,0
3172.00,-76
3171.00,-67
3170.00,14
3169.00,117
3168.00,207
3167.00,185
3166.00,136
3165.00,63
3164.00,29
3163.00,31
3162.00,58
3161.00,81
3160.00,24
3159.00,-36
3158.00,-70
3157.00,-72
3156.00,-36
3155.00,-2
3154.00,23
3153.00,-24
3152.00,-82
3151.00,-116
3150.00,-123
3149.00,-93
3148.00,-6
3147.00,120
3146.00,197
3145.00,310
3144.00,750
3143.00,1023
3142.00,692
3141.00,446
3140.00,381
3139.00,301
3138.00,217
3137.00,195
3136.00,183
3135.00,107
3134.00,50
3133.00,74
3132.00,113
3131.00,168
3130.00,156
3129.00,104
3128.00,89
3127.00,89
3126.00,89
3125.00,89
3124.00,89
3123.00,108
3122.00,159
3121.00,169
3120.00,143
3119.00,135
3118.00,132
3117.00,111
3116.00,89
3115.00,87
3114.00,86
3113.00,86
3112.00,86
3111.00,85
3110.00,69
3109.00,40
3108.00,15
3107.00,-7
3106.00,-28
3105.00,-45
3104.00,-46
3103.00,-45
3102.00,-44
3101.00,-27
3100.00,19
3099.00,41
3098.00,43
3097.00,101
3096.00,185
3095.00,205
3094.00,212
3093.00,267
3092.00,311
3091.00,275
3090.00,212
3089.00,106
3088.00,42
3087.00,41
3086.00,41
3085.00,41
3084.00,41
3083.00,41
3082.00,57
3081.00,75
3080.00,78
3079.00,72
3078.00,36
3077.00,5
3076.00,3
3075.00,3
3074.00,3
3073.00,11
3072.00,30
3071.00,60
3070.00,98
3069.00,124
3068.00,141
3067.00,146
3066.00,144
3065.00,129
3064.00,104
3063.00,38
3062.00,-23
3061.00,-31
3060.00,-27
3059.00,-10
3058.00,3
3057.00,4
3056.00,29
3055.00,100
3054.00,146
3053.00,163
3052.00,161
3051.00,143
3050.00,136
3049.00,134
3048.00,98
3047.00,50
3046.00,37
3045.00,40
3044.00,66
3043.00,92
3042.00,68
3041.00,45
3040.00,70
3039.00,99
3038.00,116
3037.00,131
3036.00,146
3035.00,148
3034.00,118
3033.00,96
3032.00,95
3031.00,83
3030.00,53
3029.00,49
3028.00,79
3027.00,71
3026.00,26
3025.00,38
3024.00,99
3023.00,256
3022.00,468
3021.00,469
3020.00,354
3019.00,305
3018.00,294
3017.00,403
3016.00,551
3015.00,627
3014.00,663
3013.00,491
3012.00,265
3011.00,184
3010.00,156
3009.00,239
3008.00,334
3007.00,338
3006.00,324
3005.00,321
3004.00,319
3003.00,317
3002.00,316
3001.00,314
3000.00,313
2999.00,312
2998.00,306
2997.00,281
2996.00,263
2995.00,283
2994.00,291
2993.00,234
2992.00,185
2991.00,190
2990.00,197
2989.00,185
2988.00,172
2987.00,160
2986.00,149
2985.00,148
2984.00,147
2983.00,147
2982.00,146
2981.00,146
2980.00,145
2979.00,144
2978.00,144
2977.00,143
2976.00,147
2975.00,168
2974.00,190
2973.00,212
2972.00,222
2971.00,181
2970.00,142
2969.00,138
2968.00,137
2967.00,137
2966.00,145
2965.00,194
2964.00,241
2963.00,256
2962.00,270
2961.00,308
2960.00,343
2959.00,347
2958.00,346
2957.00,344
2956.00,343
2955.00,350
2954.00,357
2953.00,358
2952.00,358
2951.00,380
2950.00,406
2949.00,412
2948.00,410
2947.00,408
2946.00,406
2945.00,404
2944.00,402
2943.00,382
2942.00,352
2941.00,327
2940.00,306
2939.00,290
2938.00,279
2937.00,249
2936.00,201
2935.00,152
2934.00,104
2933.00,76
2932.00,76
2931.00,78
2930.00,87
2929.00,101
2928.00,127
2927.00,147
2926.00,147
2925.00,148
2924.00,156
2923.00,162
2922.00,162
2921.00,161
2920.00,160
2919.00,159
2918.00,159
2917.00,158
2916.00,157
2915.00,155
2914.00,119
2913.00,69
2912.00,55
2911.00,63
2910.00,81
2909.00,105
2908.00,110
2907.00,92
2906.00,82
2905.00,81
2904.00,81
2903.00,80
2902.00,78
2901.00,70
2900.00,64
2899.00,70
2898.00,77
2897.00,77
2896.00,77
2895.00,76
2894.00,76
2893.00,75
2892.00,75
2891.00,103
2890.00,149
2889.00,170
2888.00,169
2887.00,159
2886.00,136
2885.00,108
2884.00,71
2883.00,50
2882.00,81
2881.00,119
2880.00,169
2879.00,204
2878.00,111
2877.00,-5
2876.00,6
2875.00,61
2874.00,91
2873.00,104
2872.00,104
2871.00,89
2870.00,78
2869.00,70
2868.00,68
2867.00,81
2866.00,91
2865.00,92
2864.00,92
2863.00,91
2862.00,91
2861.00,95
2860.00,101
2859.00,103
2858.00,102
2857.00,95
2856.00,82
2855.00,75
2854.00,81
2853.00,83
2852.00,71
2851.00,58
2850.00,50
2849.00,44
2848.00,42
2847.00,42
2846.00,46
2845.00,51
2844.00,54
2843.00,54
2842.00,51
2841.00,45
2840.00,42
2839.00,53
2838.00,63
2837.00,64
2836.00,63
2835.00,54
2834.00,42
2833.00,44
2832.00,55
2831.00,66
2830.00,78
2829.00,84
2828.00,79
2827.00,67
2826.00,31
2825.00,-5
2824.00,17
2823.00,56
2822.00,66
2821.00,60
2820.00,52
2819.00,40
2818.00,33
2817.00,38
2816.00,44
2815.00,54
2814.00,63
2813.00,62
2812.00,56
2811.00,47
2810.00,36
2809.00,24
2808.00,13
2807.00,10
2806.00,29
2805.00,47
2804.00,50
2803.00,50
2802.00,49
2801.00,49
2800.00,51
2799.00,56
2798.00,59
2797.00,59
2796.00,60
2795.00,68
2794.00,76
2793.00,59
2792.00,34
2791.00,23
2790.00,22
2789.00,24
2788.00,28
2787.00,33
2786.00,37
2785.00,42
2784.00,55
2783.00,68
2782.00,74
2781.00,73
2780.00,75
2779.00,79
2778.00,84
2777.00,93
2776.00,100
2775.00,90
2774.00,75
2773.00,69
2772.00,69
2771.00,63
2770.00,49
2769.00,38
2768.00,36
2767.00,36
2766.00,35
2765.00,35
2764.00,35
2763.00,34
2762.00,37
2761.00,45
2760.00,52
2759.00,53
2758.00,52
2757.00,43
2756.00,29
2755.00,22
2754.00,21
2753.00,20
2752.00,15
2751.00,11
2750.00,3
2749.00,-6
2748.00,-7
2747.00,-3
2746.00,1
2745.00,5
2744.00,8
2743.00,8
2742.00,9
2741.00,37
2740.00,78
2739.00,102
2738.00,106
2737.00,109
2736.00,113
2735.00,114
2734.00,93
2733.00,64
2732.00,55
2731.00,62
2730.00,65
2729.00,53
2728.00,41
2727.00,29
2726.00,17
2725.00,10
2724.00,6
2723.00,3
2722.00,2
2721.00,4
2720.00,19
2719.00,38
2718.00,38
2717.00,26
2716.00,18
2715.00,18
2714.00,18
2713.00,28
2712.00,38
2711.00,33
2710.00,18
2709.00,5
2708.00,-3
2707.00,-9
2706.00,-4
2705.00,3
2704.00,12
2703.00,23
2702.00,33
2701.00,43
2700.00,53
2699.00,54
2698.00,53
2697.00,55
2696.00,58
2695.00,58
2694.00,51
2693.00,43
2692.00,31
2691.00,16
2690.00,10
2689.00,9
2688.00,10
2687.00,16
2686.00,22
2685.00,21
2684.00,17
2683.00,17
2682.00,20
2681.00,23
2680.00,26
2679.00,29
2678.00,34
2677.00,40
2676.00,40
2675.00,27
2674.00,15
2673.00,12
2672.00,12
2671.00,12
2670.00,11
2669.00,12
2668.00,14
2667.00,17
2666.00,10
2665.00,-0
2664.00,-4
2663.00,-1
2662.00,2
2661.00,11
2660.00,20
2659.00,30
2658.00,40
2657.00,48
2656.00,46
2655.00,43
2654.00,40
2653.00,37
2652.00,34
2651.00,34
2650.00,34
2649.00,36
2648.00,39
2647.00,42
2646.00,44
2645.00,45
2644.00,42
2643.00,40
2642.00,50
2641.00,64
2640.00,69
2639.00,59
2638.00,50
2637.00,36
2636.00,21
2635.00,16
2634.00,18
2633.00,20
2632.00,20
2631.00,19
2630.00,15
2629.00,9
2628.00,7
2627.00,12
2626.00,16
2625.00,15
2624.00,12
2623.00,11
2622.00,14
2621.00,16
2620.00,16
2619.00,15
2618.00,21
2617.00,31
2616.00,39
2615.00,34
2614.00,29
2613.00,25
2612.00,22
2611.00,19
2610.00,19
2609.00,19
2608.00,18
2607.00,18
2606.00,18
2605.00,20
2604.00,22
2603.00,23
2602.00,22
2601.00,22
2600.00,22
2599.00,21
2598.00,23
2597.00,25
2596.00,29
2595.00,33
2594.00,36
2593.00,32
2592.00,27
2591.00,25
2590.00,27
2589.00,29
2588.00,29
2587.00,29
2586.00,25
2585.00,17
2584.00,11
2583.00,12
2582.00,14
2581.00,23
2580.00,37
2579.00,45
2578.00,31
2577.00,14
2576.00,-1
2575.00,-15
2574.00,-23
2573.00,-0
2572.00,25
2571.00,34
2570.00,34
2569.00,32
2568.00,26
2567.00,18
2566.00,19
2565.00,26
2564.00,30
2563.00,29
2562.00,26
2561.00,25
2560.00,24
2559.00,24
2558.00,21
2557.00,18
2556.00,16
2555.00,14
2554.00,11
2553.00,9
2552.00,6
2551.00,5
2550.00,5
2549.00,5
2548.00,6
2547.00,8
2546.00,9
2545.00,8
2544.00,8
2543.00,12
2542.00,16
2541.00,19
2540.00,20
2539.00,22
2538.00,26
2537.00,30
2536.00,33
2535.00,34
2534.00,36
2533.00,39
2532.00,43
2531.00,45
2530.00,43
2529.00,40
2528.00,39
2527.00,39
2526.00,38
2525.00,34
2524.00,29
2523.00,25
2522.00,21
2521.00,17
2520.00,16
2519.00,15
2518.00,18
2517.00,24
2516.00,28
2515.00,23
2514.00,17
2513.00,16
2512.00,21
2511.00,26
2510.00,27
2509.00,27
2508.00,26
2507.00,26
2506.00,26
2505.00,25
2504.00,25
2503.00,25
2502.00,26
2501.00,28
2500.00,27
2499.00,25
2498.00,23
2497.00,23
2496.00,22
2495.00,22
2494.00,22
2493.00,21
2492.00,21
2491.00,21
2490.00,20
2489.00,16
2488.00,12
2487.00,12
2486.00,15
2485.00,18
2484.00,18
2483.00,18
2482.00,15
2481.00,9
2480.00,4
2479.00,7
2478.00,12
2477.00,17
2476.00,22
2475.00,26
2474.00,23
2473.00,14
2472.00,6
2471.00,5
2470.00,4
2469.00,6
2468.00,10
2467.00,15
2466.00,13
2465.00,7
2464.00,3
2463.00,2
2462.00,2
2461.00,2
2460.00,4
2459.00,5
2458.00,7
2457.00,8
2456.00,8
2455.00,5
2454.00,1
2453.00,0
2452.00,2
2451.00,4
2450.00,8
2449.00,12
2448.00,16
2447.00,17
2446.00,18
2445.00,14
2444.00,7
2443.00,2
2442.00,5
2441.00,10
2440.00,12
2439.00,10
2438.00,8
2437.00,7
2436.00,7
2435.00,7
2434.00,8
2433.00,9
2432.00,9
2431.00,5
2430.00,2
2429.00,-0
2428.00,-2
2427.00,-4
2426.00,-4
2425.00,-4
2424.00,-5
2423.00,-5
2422.00,-5
2421.00,-6
2420.00,-6
2419.00,-6
2418.00,-6
2417.00,-7
2416.00,-5
2415.00,-1
2414.00,4
2413.00,21
2412.00,43
2411.00,57
2410.00,32
2409.00,2
2408.00,-17
2407.00,-17
2406.00,-17
2405.00,-7
2404.00,7
2403.00,18
2402.00,7
2401.00,-8
2400.00,-20
2399.00,-23
2398.00,-26
2397.00,-22
2396.00,-13
2395.00,-6
2394.00,-5
2393.00,-5
2392.00,-5
2391.00,-6
2390.00,-6
2389.00,0
2388.00,13
2387.00,25
2386.00,29
2385.00,30
2384.00,31
2383.00,29
2382.00,27
2381.00,26
2380.00,25
2379.00,25
2378.00,23
2377.00,20
2376.00,17
2375.00,16
2374.00,16
2373.00,15
2372.00,13
2371.00,12
2370.00,12
2369.00,13
2368.00,14
2367.00,13
2366.00,11
2365.00,10
2364.00,8
2363.00,6
2362.00,4
2361.00,-0
2360.00,-4
2359.00,-4
2358.00,-1
2357.00,3
2356.00,3
2355.00,1
2354.00,-0
2353.00,-1
2352.00,-1
2351.00,-2
2350.00,-4
2349.00,-5
2348.00,-7
2347.00,-8
2346.00,-10
2345.00,-10
2344.00,-11
2343.00,-11
2342.00,-13
2341.00,-14
2340.00,-15
2339.00,-16
2338.00,-16
2337.00,-15
2336.00,-14
2335.00,-13
2334.00,-13
2333.00,-14
2332.00,-14
2331.00,-13
2330.00,-12
2329.00,-11
2328.00,-11
2327.00,-12
2326.00,-12
2325.00,-12
2324.00,-12
2323.00,-10
2322.00,-7
2321.00,-3
2320.00,-4
2319.00,-5
2318.00,-6
2317.00,-1
2316.00,3
2315.00,7
2314.00,9
2313.00,12
2312.00,13
2311.00,14
2310.00,15
2309.00,14
2308.00,13
2307.00,12
2306.00,12
2305.00,13
2304.00,13
2303.00,12
2302.00,11
2301.00,9
2300.00,7
2299.00,4
2298.00,3
2297.00,2
2296.00,2
2295.00,4
2294.00,6
2293.00,8
2292.00,11
2291.00,14
2290.00,17
2289.00,14
2288.00,10
2287.00,8
2286.00,11
2285.00,14
2284.00,14
2283.00,8
2282.00,2
2281.00,1
2280.00,4
2279.00,7
2278.00,6
2277.00,4
2276.00,1
2275.00,-0
2274.00,-2
2273.00,-3
2272.00,-3
2271.00,-3
2270.00,-2
2269.00,2
2268.00,6
2267.00,8
2266.00,7
2265.00,6
2264.00,5
2263.00,5
2262.00,5
2261.00,5
2260.00,4
2259.00,4
2258.00,4
2257.00,4
2256.00,3
2255.00,2
2254.00,1
2253.00,-1
2252.00,-1
2251.00,-1
2250.00,-1
2249.00,-2
2248.00,-2
2247.00,-2
2246.00,0
2245.00,2
2244.00,3
2243.00,3
2242.00,3
2241.00,3
2240.00,3
2239.00,3
2238.00,3
2237.00,4
2236.00,5
2235.00,4
2234.00,3
2233.00,1
2232.00,-1
2231.00,-3
2230.00,-5
2229.00,-6
2228.00,-6
2227.00,-5
2226.00,-1
2225.00,3
2224.00,2
2223.00,-10
2222.00,-22
2221.00,-30
2220.00,-32
2219.00,-35
2218.00,-33
2217.00,-26
2216.00,-20
2215.00,-14
2214.00,-7
2213.00,-1
2212.00,-4
2211.00,-10
2210.00,-16
2209.00,-13
2208.00,-5
2207.00,1
2206.00,3
2205.00,2
2204.00,2
2203.00,3
2202.00,4
2201.00,4
2200.00,4
2199.00,4
2198.00,4
2197.00,4
2196.00,4
2195.00,4
2194.00,3
2193.00,3
2192.00,3
2191.00,4
2190.00,5
2189.00,5
2188.00,5
2187.00,5
2186.00,5
2185.00,5
2184.00,4
2183.00,4
2182.00,4
2181.00,4
2180.00,4
2179.00,5
2178.00,6
2177.00,6
2176.00,6
2175.00,5
2174.00,1
2173.00,-6
2172.00,-14
2171.00,-16
2170.00,-17
2169.00,-17
2168.00,-14
2167.00,-10
2166.00,-6
2165.00,-5
2164.00,-6
2163.00,-5
2162.00,1
2161.00,10
2160.00,19
2159.00,19
2158.00,18
2157.00,17
2156.00,16
2155.00,16
2154.00,16
2153.00,16
2152.00,15
2151.00,15
2150.00,13
2149.00,11
2148.00,8
2147.00,2
2146.00,-6
2145.00,-11
2144.00,-7
2143.00,0
2142.00,6
2141.00,7
2140.00,6
2139.00,6
2138.00,6
2137.00,5
2136.00,5
2135.00,5
2134.00,4
2133.00,4
2132.00,5
2131.00,5
2130.00,6
2129.00,6
2128.00,5
2127.00,5
2126.00,4
2125.00,4
2124.00,3
2123.00,4
2122.00,4
2121.00,4
2120.00,5
2119.00,5
2118.00,6
2117.00,6
2116.00,6
2115.00,7
2114.00,7
2113.00,8
2112.00,8
2111.00,8
2110.00,7
2109.00,7
2108.00,6
2107.00,5
2106.00,5
2105.00,6
2104.00,7
2103.00,8
2102.00,7
2101.00,5
2100.00,4
2099.00,4
2098.00,4
2097.00,4
2096.00,4
2095.00,3
2094.00,3
2093.00,4
2092.00,7
2091.00,10
2090.00,12
2089.00,13
2088.00,15
2087.00,16
2086.00,17
2085.00,18
2084.00,17
2083.00,14
2082.00,12
2081.00,10
2080.00,10
2079.00,9
2078.00,8
2077.00,8
2076.00,7
2075.00,8
2074.00,10
2073.00,12
2072.00,13
2071.00,13
2070.00,13
2069.00,14
2068.00,14
2067.00,15
2066.00,16
2065.00,15
2064.00,14
2063.00,13
2062.00,12
2061.00,12
2060.00,11
2059.00,10
2058.00,9
2057.00,8
2056.00,7
2055.00,5
2054.00,4
2053.00,2
2052.00,0
2051.00,-2
2050.00,-2
2049.00,-3
2048.00,-3
2047.00,-5
2046.00,-7
2045.00,-8
2044.00,-7
2043.00,-4
2042.00,-1
2041.00,1
2040.00,1
2039.00,1
2038.00,2
2037.00,3
2036.00,4
2035.00,5
2034.00,5
2033.00,5
2032.00,3
2031.00,-3
2030.00,-8
2029.00,-12
2028.00,-7
2027.00,-2
2026.00,2
2025.00,-1
2024.00,-6
2023.00,-11
2022.00,-15
2021.00,-19
2020.00,-22
2019.00,-19
2018.00,-13
2017.00,-7
2016.00,-6
2015.00,-6
2014.00,-6
2013.00,-6
2012.00,-5
2011.00,-3
2010.00,-2
2009.00,-1
2008.00,1
2007.00,2
2006.00,1
2005.00,1
2004.00,1
2003.00,3
2002.00,5
2001.00,8
2000.00,10
1999.00,12
1998.00,14
1997.00,14
1996.00,14
1995.00,13
1994.00,13
1993.00,12
1992.00,12
1991.00,12
1990.00,11
1989.00,11
1988.00,10
1987.00,10
1986.00,10
1985.00,9
1984.00,8
1983.00,7
1982.00,6
1981.00,6
1980.00,5
1979.00,5
1978.00,5
1977.00,4
1976.00,4
1975.00,4
1974.00,3
1973.00,3
1972.00,3
1971.00,2
1970.00,2
1969.00,2
1968.00,1
1967.00,-0
1966.00,-1
1965.00,-1
1964.00,-1
1963.00,-2
1962.00,-1
1961.00,-1
1960.00,-1
1959.00,-0
1958.00,0
1957.00,1
1956.00,1
1955.00,1
1954.00,1
1953.00,3
1952.00,8
1951.00,12
1950.00,15
1949.00,15
1948.00,15
1947.00,14
1946.00,14
1945.00,13
1944.00,12
1943.00,11
1942.00,11
1941.00,11
1940.00,12
1939.00,14
1938.00,16
1937.00,16
1936.00,13
1935.00,10
1934.00,8
1933.00,8
1932.00,8
1931.00,8
1930.00,9
1929.00,10
1928.00,12
1927.00,13
1926.00,14
1925.00,14
1924.00,14
1923.00,11
1922.00,9
1921.00,8
1920.00,9
1919.00,11
1918.00,12
1917.00,13
1916.00,13
1915.00,13
1914.00,13
1913.00,13
1912.00,12
1911.00,11
1910.00,9
1909.00,8
1908.00,7
1907.00,8
1906.00,9
1905.00,10
1904.00,9
1903.00,7
1902.00,6
1901.00,6
1900.00,6
1899.00,5
1898.00,6
1897.00,8
1896.00,9
1895.00,10
1894.00,10
1893.00,10
1892.00,11
1891.00,13
1890.00,16
1889.00,19
1888.00,19
1887.00,19
1886.00,18
1885.00,17
1884.00,16
1883.00,15
1882.00,14
1881.00,16
1880.00,17
1879.00,18
1878.00,18
1877.00,17
1876.00,17
1875.00,16
1874.00,16
1873.00,15
1872.00,15
1871.00,16
1870.00,17
1869.00,18
1868.00,20
1867.00,23
1866.00,26
1865.00,24
1864.00,20
1863.00,17
1862.00,15
1861.00,14
1860.00,14
1859.00,14
1858.00,17
1857.00,20
1856.00,22
1855.00,21
1854.00,20
1853.00,18
1852.00,17
1851.00,16
1850.00,15
1849.00,15
1848.00,15
1847.00,16
1846.00,16
1845.00,15
1844.00,14
1843.00,13
1842.00,13
1841.00,13
1840.00,12
1839.00,13
1838.00,15
1837.00,18
1836.00,20
1835.00,20
1834.00,20
1833.00,20
1832.00,20
1831.00,21
1830.00,21
1829.00,22
1828.00,22
1827.00,23
1826.00,23
1825.00,23
1824.00,22
1823.00,22
1822.00,22
1821.00,22
1820.00,22
1819.00,23
1818.00,24
1817.00,24
1816.00,25
1815.00,25
1814.00,24
1813.00,24
1812.00,22
1811.00,21
1810.00,19
1809.00,19
1808.00,24
1807.00,28
1806.00,33
1805.00,35
1804.00,36
1803.00,38
1802.00,38
1801.00,39
1800.00,39
1799.00,39
1798.00,38
1797.00,38
1796.00,37
1795.00,37
1794.00,37
1793.00,37
1792.00,37
1791.00,38
1790.00,39
1789.00,40
1788.00,43
1787.00,47
1786.00,51
1785.00,53
1784.00,53
1783.00,53
1782.00,56
1781.00,62
1780.00,69
1779.00,74
1778.00,76
1777.00,76
1776.00,77
1775.00,77
1774.00,78
1773.00,78
1772.00,79
1771.00,80
1770.00,81
1769.00,82
1768.00,84
1767.00,86
1766.00,88
1765.00,89
1764.00,88
1763.00,87
1762.00,86
1761.00,83
1760.00,79
1759.00,75
1758.00,73
1757.00,73
1756.00,73
1755.00,71
1754.00,66
1753.00,60
1752.00,54
1751.00,52
1750.00,52
1749.00,52
1748.00,52
1747.00,53
1746.00,53
1745.00,53
1744.00,51
1743.00,50
1742.00,49
1741.00,47
1740.00,46
1739.00,45
1738.00,44
1737.00,44
1736.00,43
1735.00,43
1734.00,41
1733.00,40
1732.00,39
1731.00,37
1730.00,37
1729.00,36
1728.00,35
1727.00,36
1726.00,37
1725.00,37
1724.00,38
1723.00,38
1722.00,38
1721.00,37
1720.00,36
1719.00,34
1718.00,32
1717.00,31
1716.00,30
1715.00,29
1714.00,28
1713.00,29
1712.00,31
1711.00,33
1710.00,35
1709.00,37
1708.00,40
1707.00,42
1706.00,39
1705.00,35
1704.00,31
1703.00,29
1702.00,32
1701.00,34
1700.00,36
1699.00,37
1698.00,38
1697.00,39
1696.00,39
1695.00,39
1694.00,38
1693.00,38
1692.00,38
1691.00,37
1690.00,37
1689.00,37
1688.00,37
1687.00,38
1686.00,38
1685.00,38
1684.00,38
1683.00,39
1682.00,38
1681.00,38
1680.00,37
1679.00,36
1678.00,36
1677.00,36
1676.00,35
1675.00,36
1674.00,36
1673.00,37
1672.00,37
1671.00,37
1670.00,36
1669.00,36
1668.00,34
1667.00,32
1666.00,29
1665.00,28
1664.00,29
1663.00,32
1662.00,34
1661.00,35
1660.00,34
1659.00,33
1658.00,33
1657.00,35
1656.00,37
1655.00,40
1654.00,41
1653.00,40
1652.00,39
1651.00,38
1650.00,37
1649.00,37
1648.00,37
1647.00,37
1646.00,36
1645.00,35
1644.00,35
1643.00,38
1642.00,41
1641.00,45
1640.00,47
1639.00,46
1638.00,45
1637.00,45
1636.00,44
1635.00,43
1634.00,42
1633.00,41
1632.00,41
1631.00,40
1630.00,40
1629.00,39
1628.00,38
1627.00,37
1626.00,37
1625.00,36
1624.00,35
1623.00,35
1622.00,35
1621.00,35
1620.00,35
1619.00,35
1618.00,34
1617.00,33
1616.00,33
1615.00,33
1614.00,35
1613.00,37
1612.00,39
1611.00,39
1610.00,39
1609.00,39
1608.00,38
1607.00,38
1606.00,38
1605.00,37
1604.00,37
1603.00,36
1602.00,36
1601.00,35
1600.00,37
1599.00,39
1598.00,40
1597.00,39
1596.00,35
1595.00,32
1594.00,28
1593.00,29
1592.00,31
1591.00,33
1590.00,35
1589.00,35
1588.00,36
1587.00,36
1586.00,34
1585.00,32
1584.00,30
1583.00,28
1582.00,29
1581.00,31
1580.00,32
1579.00,33
1578.00,33
1577.00,33
1576.00,34
1575.00,34
1574.00,34
1573.00,34
1572.00,34
1571.00,35
1570.00,35
1569.00,35
1568.00,36
1567.00,36
1566.00,36
1565.00,37
1564.00,37
1563.00,37
1562.00,37
1561.00,37
1560.00,36
1559.00,36
1558.00,35
1557.00,35
1556.00,35
1555.00,34
1554.00,34
1553.00,33
1552.00,32
1551.00,32
1550.00,31
1549.00,31
1548.00,31
1547.00,31
1546.00,30
1545.00,29
1544.00,28
1543.00,27
1542.00,27
1541.00,27
1540.00,27
1539.00,29
1538.00,32
1537.00,36
1536.00,39
1535.00,39
1534.00,39
1533.00,39
1532.00,38
1531.00,38
1530.00,38
1529.00,38
1528.00,38
1527.00,38
1526.00,38
1525.00,38
1524.00,37
1523.00,37
1522.00,36
1521.00,36
1520.00,35
1519.00,35
1518.00,34
1517.00,34
1516.00,35
1515.00,36
1514.00,37
1513.00,38
1512.00,39
1511.00,39
1510.00,39
1509.00,39
1508.00,38
1507.00,37
1506.00,37
1505.00,38
1504.00,39
1503.00,40
1502.00,41
1501.00,42
1500.00,43
1499.00,44
1498.00,42
1497.00,41
1496.00,39
1495.00,38
1494.00,37
1493.00,37
1492.00,36
1491.00,37
1490.00,38
1489.00,39
1488.00,41
1487.00,43
1486.00,45
1485.00,47
1484.00,49
1483.00,48
1482.00,48
1481.00,47
1480.00,47
1479.00,47
1478.00,47
1477.00,46
1476.00,47
1475.00,48
1474.00,49
1473.00,50
1472.00,55
1471.00,59
1470.00,64
1469.00,67
1468.00,68
1467.00,68
1466.00,69
1465.00,76
1464.00,86
1463.00,95
1462.00,104
1461.00,107
1460.00,109
1459.00,110
1458.00,113
1457.00,115
1456.00,118
1455.00,121
1454.00,122
1453.00,122
1452.00,121
1451.00,121
1450.00,120
1449.00,119
1448.00,119
1447.00,117
1446.00,113
1445.00,109
1444.00,104
1443.00,98
1442.00,91
1441.00,83
1440.00,76
1439.00,70
1438.00,67
1437.00,64
1436.00,62
1435.00,60
1434.00,60
1433.00,60
1432.00,59
1431.00,58
1430.00,58
1429.00,57
1428.00,56
1427.00,55
1426.00,54
1425.00,53
1424.00,52
1423.00,52
1422.00,52
1421.00,52
1420.00,51
1419.00,48
1418.00,46
1417.00,44
1416.00,43
1415.00,43
1414.00,43
1413.00,42
1412.00,42
1411.00,41
1410.00,40
1409.00,39
1408.00,39
1407.00,39
1406.00,39
1405.00,40
1404.00,40
1403.00,41
1402.00,42
1401.00,42
1400.00,43
1399.00,43
1398.00,44
1397.00,45
1396.00,46
1395.00,47
1394.00,49
1393.00,49
1392.00,49
1391.00,50
1390.00,50
1389.00,52
1388.00,53
1387.00,54
1386.00,56
1385.00,57
1384.00,58
1383.00,59
1382.00,59
1381.00,60
1380.00,60
1379.00,60
1378.00,60
1377.00,59
1376.00,59
1375.00,58
1374.00,61
1373.00,65
1372.00,69
1371.00,73
1370.00,72
1369.00,72
1368.00,71
1367.00,70
1366.00,70
1365.00,70
1364.00,71
1363.00,70
1362.00,70
1361.00,69
1360.00,69
1359.00,68
1358.00,69
1357.00,69
1356.00,69
1355.00,68
1354.00,67
1353.00,65
1352.00,64
1351.00,65
1350.00,66
1349.00,67
1348.00,68
1347.00,67
1346.00,65
1345.00,64
1344.00,62
1343.00,62
1342.00,61
1341.00,61
1340.00,60
1339.00,60
1338.00,59
1337.00,59
1336.00,58
1335.00,57
1334.00,57
1333.00,56
1332.00,55
1331.00,54
1330.00,52
1329.00,51
1328.00,52
1327.00,55
1326.00,58
1325.00,62
1324.00,63
1323.00,63
1322.00,63
1321.00,62
1320.00,62
1319.00,61
1318.00,61
1317.00,60
1316.00,60
1315.00,60
1314.00,60
1313.00,60
1312.00,60
1311.00,60
1310.00,59
1309.00,59
1308.00,59
1307.00,59
1306.00,58
1305.00,59
1304.00,61
1303.00,63
1302.00,65
1301.00,66
1300.00,64
1299.00,61
1298.00,59
1297.00,58
1296.00,58
1295.00,57
1294.00,57
1293.00,56
1292.00,55
1291.00,53
1290.00,51
1289.00,50
1288.00,49
1287.00,48
1286.00,47
1285.00,46
1284.00,44
1283.00,42
1282.00,41
1281.00,39
1280.00,38
1279.00,37
1278.00,36
1277.00,36
1276.00,36
1275.00,37
1274.00,37
1273.00,37
1272.00,36
1271.00,35
1270.00,35
1269.00,34
1268.00,34
1267.00,34
1266.00,34
1265.00,34
1264.00,35
1263.00,35
1262.00,35
1261.00,35
1260.00,34
1259.00,33
1258.00,32
1257.00,31
1256.00,31
1255.00,30
1254.00,29
1253.00,28
1252.00,28
1251.00,27
1250.00,26
1249.00,26
1248.00,26
1247.00,26
1246.00,25
1245.00,25
1244.00,26
1243.00,26
1242.00,26
1241.00,27
1240.00,28
1239.00,29
1238.00,30
1237.00,30
1236.00,31
1235.00,32
1234.00,32
1233.00,32
1232.00,32
1231.00,31
1230.00,31
1229.00,31
1228.00,30
1227.00,30
1226.00,30
1225.00,30
1224.00,30
1223.00,30
1222.00,30
1221.00,29
1220.00,29
1219.00,29
1218.00,28
1217.00,28
1216.00,28
1215.00,27
1214.00,27
1213.00,27
1212.00,26
1211.00,26
1210.00,25
1209.00,25
1208.00,24
1207.00,23
1206.00,22
1205.00,22
1204.00,23
1203.00,23
1202.00,23
1201.00,22
1200.00,22
1199.00,21
1198.00,21
1197.00,21
1196.00,22
1195.00,22
1194.00,23
1193.00,23
1192.00,22
1191.00,22
1190.00,22
1189.00,22
1188.00,23
1187.00,23
1186.00,23
1185.00,22
1184.00,21
1183.00,20
1182.00,18
1181.00,16
1180.00,13
1179.00,11
1178.00,8
1177.00,7
1176.00,6
1175.00,5
1174.00,4
1173.00,4
1172.00,4
1171.00,4
1170.00,4
1169.00,4
1168.00,3
1167.00,3
1166.00,2
1165.00,3
1164.00,3
1163.00,4
1162.00,5
1161.00,6
1160.00,8
1159.00,9
1158.00,10
1157.00,12
1156.00,13
1155.00,14
1154.00,15
1153.00,16
1152.00,16
1151.00,16
1150.00,16
1149.00,18
1148.00,23
1147.00,28
1146.00,34
1145.00,38
1144.00,38
1143.00,38
1142.00,38
1141.00,38
1140.00,38
1139.00,38
1138.00,38
1137.00,38
1136.00,39
1135.00,40
1134.00,40
1133.00,41
1132.00,42
1131.00,42
1130.00,43
1129.00,44
1128.00,44
1127.00,43
1126.00,43
1125.00,43
1124.00,42
1123.00,42
1122.00,42
1121.00,42
1120.00,41
1119.00,41
1118.00,40
1117.00,40
1116.00,39
1115.00,38
1114.00,37
1113.00,35
1112.00,34
1111.00,33
1110.00,32
1109.00,31
1108.00,30
1107.00,31
1106.00,31
1105.00,31
1104.00,31
1103.00,30
1102.00,29
1101.00,28
1100.00,27
1099.00,27
1098.00,26
1097.00,25
1096.00,24
1095.00,24
1094.00,24
1093.00,24
1092.00,24
1091.00,24
1090.00,23
1089.00,23
1088.00,23
1087.00,22
1086.00,21
1085.00,20
1084.00,19
1083.00,18
1082.00,18
1081.00,18
1080.00,17
1079.00,17
1078.00,16
1077.00,15
1076.00,15
1075.00,14
1074.00,13
1073.00,13
1072.00,12
1071.00,12
1070.00,13
1069.00,14
1068.00,15
1067.00,16
1066.00,17
1065.00,18
1064.00,19
1063.00,20
1062.00,20
1061.00,21
1060.00,21
1059.00,22
1058.00,24
1057.00,28
1056.00,33
1055.00,37
1054.00,40
1053.00,40
1052.00,40
1051.00,39
1050.00,39
1049.00,39
1048.00,39
1047.00,39
1046.00,40
1045.00,39
1044.00,39
1043.00,38
1042.00,38
1041.00,36
1040.00,35
1039.00,33
1038.00,31
1037.00,29
1036.00,27
1035.00,25
1034.00,23
1033.00,21
1032.00,19
1031.00,17
1030.00,14
1029.00,12
1028.00,12
1027.00,11
1026.00,11
1025.00,11
1024.00,10
1023.00,9
1022.00,7
1021.00,6
1020.00,5
1019.00,5
1018.00,5
1017.00,4
1016.00,4
1015.00,3
1014.00,2
1013.00,2
1012.00,1
1011.00,-1
1010.00,-3
1009.00,-5
1008.00,-7
1007.00,-8
1006.00,-8
1005.00,-8
1004.00,-8
1003.00,-8
1002.00,-7
1001.00,-6
1000.00,-5
999.00,-5
998.00,-5
997.00,-5
996.00,-6
995.00,-6
994.00,-5
993.00,-4
992.00,-4
991.00,-3
990.00,-3
989.00,-3
988.00,-3
987.00,-3
986.00,-3
985.00,-4
984.00,-4
983.00,-5
982.00,-5
981.00,-6
980.00,-6
979.00,-7
978.00,-7
977.00,-8
976.00,-9
975.00,-9
974.00,-10
973.00,-9
972.00,-8
971.00,-7
970.00,-6
969.00,-5
968.00,-5
967.00,-5
966.00,-5
965.00,-5
964.00,-5
963.00,-5
962.00,-4
961.00,-4
960.00,-4
959.00,-4
958.00,-3
957.00,-3
956.00,-3
955.00,-4
954.00,-4
953.00,-5
952.00,-4
951.00,-3
950.00,-2
949.00,-1
948.00,-0
947.00,-0
946.00,-0
945.00,-0
944.00,0
943.00,-0
942.00,-0
941.00,-1
940.00,-1
939.00,-1
938.00,-1
937.00,-1
936.00,-1
935.00,-0
934.00,1
933.00,3
932.00,5
931.00,7
930.00,7
929.00,6
928.00,6
927.00,5
926.00,5
925.00,5
924.00,6
923.00,6
922.00,6
921.00,6
920.00,6
919.00,5
918.00,5
917.00,6
916.00,8
915.00,10
914.00,12
913.00,13
912.00,14
911.00,14
910.00,14
909.00,15
908.00,15
907.00,16
906.00,16
905.00,16
904.00,16
903.00,16
902.00,15
901.00,15
900.00,15
899.00,15
898.00,14
897.00,14
896.00,14
895.00,15
894.00,15
893.00,15
892.00,15
891.00,16
890.00,17
889.00,19
888.00,20
887.00,23
886.00,28
885.00,34
884.00,40
883.00,46
882.00,55
881.00,65
880.00,75
879.00,86
878.00,90
877.00,89
876.00,89
875.00,88
874.00,88
873.00,87
872.00,87
871.00,87
870.00,87
869.00,86
868.00,86
867.00,85
866.00,85
865.00,82
864.00,73
863.00,65
862.00,57
861.00,49
860.00,44
859.00,39
858.00,34
857.00,30
856.00,27
855.00,25
854.00,24
853.00,22
852.00,20
851.00,17
850.00,14
849.00,10
848.00,7
847.00,6
846.00,5
845.00,5
844.00,4
843.00,4
842.00,3
841.00,2
840.00,1
839.00,0
838.00,-1
837.00,-1
836.00,-2
835.00,-2
834.00,-2
833.00,-3
832.00,-3
831.00,-3
830.00,-3
829.00,-3
828.00,-3
827.00,-2
826.00,-2
825.00,-2
824.00,-3
823.00,-3
822.00,-3
821.00,-3
820.00,-3
819.00,-2
818.00,-2
817.00,-2
816.00,-1
815.00,-0
814.00,0
813.00,1
812.00,1
811.00,1
810.00,0
809.00,-0
808.00,-1
807.00,-1
806.00,-1
805.00,-2
804.00,-2
803.00,-2
802.00,-3
801.00,-3
800.00,-4
799.00,-4
798.00,-4
797.00,-5
796.00,-5
795.00,-5
794.00,-6
793.00,-5
792.00,-5
791.00,-5
790.00,-5
789.00,-5
788.00,-5
787.00,-5
786.00,-5
785.00,-5
784.00,-5
783.00,-5
782.00,-4
781.00,-4
780.00,-2
779.00,0
778.00,3
777.00,5
776.00,6
775.00,6
774.00,5
773.00,4
772.00,4
771.00,4
770.00,4
769.00,5
768.00,5
767.00,5
766.00,4
765.00,3
764.00,3
763.00,2
762.00,2
761.00,2
760.00,2
759.00,2
758.00,2
757.00,2
756.00,2
755.00,2
754.00,2
753.00,2
752.00,2
751.00,2
750.00,1
749.00,2
748.00,3
747.00,5
746.00,6
745.00,7
744.00,6
743.00,4
742.00,2
741.00,0
740.00,-0
739.00,1
738.00,3
737.00,4
736.00,5
735.00,6
734.00,5
733.00,5
732.00,5
731.00,5
730.00,5
729.00,5
728.00,5
727.00,6
726.00,6
725.00,5
724.00,5
723.00,5
722.00,5
721.00,6
720.00,8
719.00,10
718.00,11
717.00,12
716.00,11
715.00,10
714.00,10
713.00,9
712.00,9
711.00,10
710.00,10
709.00,10
708.00,11
707.00,12
706.00,12
705.00,13
704.00,13
703.00,13
702.00,13
701.00,13
700.00,12
699.00,12
698.00,12
697.00,12
696.00,12
695.00,11
694.00,11
693.00,10
692.00,10
691.00,9
690.00,9
689.00,8
688.00,8
687.00,7
686.00,7
685.00,6
684.00,6
683.00,5
682.00,5
681.00,4
680.00,4
679.00,4
678.00,5
677.00,5
676.00,6
675.00,7
674.00,9
673.00,10
672.00,12
671.00,12
670.00,12
669.00,12
668.00,11
667.00,11
666.00,11
665.00,12
664.00,12
663.00,13
662.00,13
661.00,12
660.00,12
659.00,12
658.00,12
657.00,12
656.00,12
655.00,12
654.00,12
653.00,12
652.00,11
651.00,11
650.00,10
649.00,10
648.00,10
647.00,10
646.00,11
645.00,11
644.00,11
643.00,11
642.00,9
641.00,8
640.00,7
639.00,6
638.00,6
637.00,5
636.00,5
635.00,5
634.00,4
633.00,4
632.00,4
631.00,3
630.00,3
629.00,4
628.00,5
627.00,6
626.00,7
625.00,8
624.00,9
623.00,9
622.00,9
621.00,9
620.00,9
619.00,9
618.00,8
617.00,8
616.00,8
615.00,7
614.00,6
613.00,6
612.00,5
611.00,4
610.00,4
609.00,3
608.00,3
607.00,2
606.00,2
605.00,2
604.00,2
603.00,2
602.00,2
601.00,4
600.00,6
599.00,8
598.00,10
597.00,12
596.00,13
595.00,15
594.00,16
593.00,17
592.00,17
591.00,17
590.00,16
589.00,16
588.00,16
587.00,16
586.00,15
585.00,15
584.00,15
583.00,15
582.00,14
581.00,14
580.00,13
579.00,12
578.00,11
577.00,8
576.00,6
575.00,4
574.00,2
573.00,1
572.00,1
571.00,0
570.00,-0
569.00,-0
568.00,0
567.00,1
566.00,2
565.00,2
564.00,2
563.00,1
562.00,-1
561.00,-3
560.00,-4
559.00,-4
558.00,-4
557.00,-4
556.00,-3
555.00,-3
554.00,-3
553.00,-2
552.00,-2
551.00,-2
550.00,-2
549.00,-2
548.00,-2
547.00,-2
546.00,-2
545.00,-2
544.00,-2
543.00,-2
542.00,-2
541.00,-1
540.00,-1
539.00,-0
538.00,1
537.00,1
536.00,2
535.00,2
534.00,3
533.00,3
532.00,3
531.00,3
530.00,4
529.00,5
528.00,7
527.00,8
526.00,9
525.00,8
524.00,8
523.00,7
522.00,6
521.00,6
520.00,7
519.00,7
518.00,7
517.00,7
516.00,7
515.00,6
514.00,6
513.00,5
512.00,5
511.00,4
510.00,3
509.00,3
508.00,2
507.00,1
506.00,1
505.00,-0
504.00,-1
503.00,-2
502.00,-2
501.00,-1
500.00,-1
499.00,0
498.00,1
497.00,1
496.00,-0
495.00,-1
494.00,-2
493.00,-3
492.00,-4
491.00,-5
490.00,-6
489.00,-7
488.00,-8
487.00,-8
486.00,-8
485.00,-9
484.00,-9
483.00,-9
482.00,-8
481.00,-7
480.00,-7
479.00,-6
478.00,-5
477.00,-5
476.00,-5
475.00,-5
474.00,-5
473.00,-5
472.00,-5
471.00,-4
470.00,-4
469.00,-3
468.00,-1
467.00,1
466.00,4
465.00,6
464.00,8
463.00,9
462.00,10
461.00,10
460.00,10
459.00,10
458.00,10
457.00,9
456.00,9
455.00,8
454.00,8
453.00,8
452.00,8
451.00,8
450.00,9
449.00,9
448.00,9
447.00,9
446.00,10
445.00,10
444.00,10
443.00,10
442.00,10
441.00,9
440.00,9
439.00,10
438.00,10
437.00,11
436.00,12
435.00,13
434.00,14
433.00,14
432.00,15
431.00,16
430.00,16
429.00,17
428.00,18
427.00,20
426.00,21
425.00,22
424.00,22
423.00,22
422.00,22
421.00,22
420.00,22
419.00,22
418.00,23
417.00,24
416.00,24
415.00,25
414.00,29
413.00,33
412.00,37
411.00,41
410.00,43
409.00,44
408.00,44
407.00,44
406.00,44
405.00,44
404.00,44
403.00,44
402.00,44
401.00,44
400.00,43
399.00,43
398.00,42
397.00,42
396.00,41
395.00,41
394.00,40
393.00,40
392.00,39
391.00,38
390.00,38
389.00,37
388.00,37
387.00,36
386.00,35
385.00,34
384.00,32
383.00,29
382.00,27
381.00,25
380.00,23
379.00,20
378.00,18
377.00,15
376.00,13
375.00,12
374.00,11
373.00,11
372.00,11
371.00,10
370.00,10
369.00,10
368.00,10
367.00,9
366.00,9
365.00,9
364.00,9
363.00,8
362.00,8
361.00,8
360.00,9
359.00,10
358.00,11
357.00,11
356.00,12
355.00,12
354.00,12
353.00,12
352.00,12
351.00,12
350.00,12
349.00,12
348.00,11
347.00,11
346.00,11
345.00,12
344.00,12
343.00,13
342.00,13
341.00,13
340.00,13
339.00,13
338.00,12
337.00,12
336.00,12
335.00,12
334.00,12
333.00,12
332.00,12
331.00,12
330.00,12
329.00,13
328.00,13
327.00,13
326.00,14
325.00,14
324.00,15
323.00,16
322.00,17
321.00,18
320.00,18
319.00,18
318.00,18
317.00,18
316.00,18
315.00,18
314.00,18
313.00,18
312.00,18
311.00,18
310.00,19
309.00,19
308.00,19
307.00,19
306.00,20
305.00,19
304.00,18
303.00,18
302.00,17
301.00,17
300.00,17
299.00,16
298.00,16
297.00,16
296.00,16
295.00,16
294.00,15
293.00,15
292.00,14
291.00,13
290.00,12
289.00,10
288.00,8
287.00,7
286.00,5
285.00,4
284.00,4
283.00,4
282.00,3
281.00,3
280.00,2
279.00,1
278.00,1
277.00,0
276.00,-0
275.00,-1
274.00,-0
273.00,-0
272.00,-0
271.00,-0
270.00,0
269.00,0
268.00,0
267.00,0
266.00,1
265.00,1
264.00,1
263.00,1
262.00,2
261.00,2
260.00,2
259.00,2
258.00,2
257.00,2
256.00,3
255.00,3
254.00,4
253.00,4
252.00,5
251.00,6
250.00,6
249.00,7
248.00,7
247.00,8
246.00,8
245.00,8
244.00,7
243.00,7
242.00,6
241.00,5
240.00,5
239.00,5
238.00,5
237.00,5
236.00,5
235.00,5
234.00,5
233.00,5
232.00,6
231.00,6
230.00,6
229.00,6
228.00,6
227.00,6
226.00,6
225.00,6
224.00,6
223.00,6
222.00,6
221.00,6
220.00,5
219.00,6
218.00,6
217.00,7
216.00,7
215.00,7
214.00,8
213.00,8
212.00,9
211.00,9
210.00,10
209.00,10
208.00,10
207.00,10
206.00,10
205.00,11
204.00,11
203.00,11
202.00,11
201.00,11
200.00,11
199.00,11
198.00,11
197.00,11
196.00,10
195.00,10
194.00,10
193.00,10
192.00,10
191.00,10
190.00,10
189.00,10
188.00,10
187.00,11
186.00,11
185.00,11
184.00,11
183.00,11
182.00,11
181.00,10
180.00,10
179.00,9
178.00,9
177.00,9
176.00,8
175.00,8
174.00,8
173.00,8
172.00,9
171.00,10
170.00,11
169.00,12
168.00,13
167.00,13
166.00,14
165.00,14
164.00,15
163.00,16
162.00,18
161.00,20
160.00,22
159.00,24
158.00,25
157.00,25
156.00,25
155.00,24
154.00,23
153.00,23
152.00,24
151.00,25
150.00,27
149.00,28
148.00,29
147.00,28
146.00,26
145.00,24
144.00,21
143.00,19
142.00,18
141.00,18
140.00,18
139.00,18
138.00,19
137.00,19
136.00,19
135.00,19
134.00,20
133.00,20
132.00,20
131.00,21
130.00,22
129.00,23
128.00,24
127.00,26
126.00,27
125.00,29
124.00,32
123.00,34
122.00,36
121.00,37
120.00,38
119.00,39
118.00,40
117.00,41
116.00,43
115.00,47
114.00,50
113.00,53
112.00,56
111.00,59
110.00,59
109.00,59
108.00,59
107.00,59
106.00,59
105.00,59
104.00,58
103.00,58
102.00,57
101.00,56
100.00,55
