Created as New Dataset,
Raman Shift / cm-1,INT
3200.00,78
3199.00,100
3198.00,101
3197.00,179
3196.00,310
3195.00,339
3194.00,328
3193.00,284
3192.00,236
3191.00,190
3190.00,145
3189.00,105
3188.00,98
3187.00,98
3186.00,98
3185.00,97
3184.00,98
3183.00,126
3182.00,170
3181.00,247
3180.00,306
3179.00,307
3178.00,284
3177.00,245
3176.00,234
3175.00,239
3174.00,273
3173.00,286
3172.00,248
3171.00,229
3170.00,227
3169.00,226
3168.00,224
3167.00,223
3166.00,211
3165.00,174
3164.00,97
3163.00,-5
3162.00,-7
3161.00,17
3160.00,-40
3159.00,-91
3158.00,-92
3157.00,-90
3156.00,-89
3155.00,-88
3154.00,-85
3153.00,-57
3152.00,-36
3151.00,-63
3150.00,-83
3149.00,-83
3148.00,8
3147.00,168
3146.00,322
3145.00,496
3144.00,812
3143.00,955
3142.00,560
3141.00,342
3140.00,425
3139.00,310
3138.00,86
3137.00,9
3136.00,-12
3135.00,11
3134.00,39
3133.00,67
3132.00,83
3131.00,83
3130.00,83
3129.00,83
3128.00,83
3127.00,82
3126.00,82
3125.00,88
3124.00,113
3123.00,139
3122.00,164
3121.00,176
3120.00,175
3119.00,174
3118.00,165
3117.00,82
3116.00,-3
3115.00,-12
3114.00,-5
3113.00,19
3112.00,23
3111.00,-1
3110.00,1
3109.00,23
3108.00,30
3107.00,30
3106.00,11
3105.00,-1
3104.00,40
3103.00,75
3102.00,76
3101.00,76
3100.00,76
3099.00,76
3098.00,76
3097.00,105
3096.00,147
3095.00,157
3094.00,164
3093.00,219
3092.00,267
3091.00,251
3090.00,216
3089.00,153
3088.00,113
3087.00,112
3086.00,112
3085.00,111
3084.00,111
3083.00,111
3082.00,110
3081.00,110
3080.00,109
3079.00,106
3078.00,88
3077.00,72
3076.00,70
3075.00,70
3074.00,70
3073.00,78
3072.00,97
3071.00,96
3070.00,76
3069.00,81
3068.00,98
3067.00,90
3066.00,72
3065.00,68
3064.00,66
3063.00,50
3062.00,34
3061.00,33
3060.00,32
3059.00,32
3058.00,32
3057.00,32
3056.00,38
3055.00,56
3054.00,73
3053.00,90
3052.00,89
3051.00,72
3050.00,86
3049.00,119
3048.00,129
3047.00,127
3046.00,101
3045.00,68
3044.00,49
3043.00,36
3042.00,47
3041.00,59
3040.00,46
3039.00,38
3038.00,67
3037.00,102
3036.00,148
3035.00,181
3034.00,182
3033.00,171
3032.00,140
3031.00,109
3030.00,78
3029.00,74
3028.00,104
3027.00,103
3026.00,73
3025.00,67
3024.00,84
3023.00,251
3022.00,506
3021.00,521
3020.00,406
3019.00,357
3018.00,347
3017.00,455
3016.00,594
3015.00,523
3014.00,382
3013.00,253
3012.00,132
3011.00,74
3010.00,39
3009.00,54
3008.00,79
3007.00,82
3006.00,82
3005.00,82
3004.00,83
3003.00,94
3002.00,105
3001.00,106
3000.00,106
2999.00,105
2998.00,101
2997.00,77
2996.00,60
2995.00,81
2994.00,97
2993.00,75
2992.00,57
2991.00,66
2990.00,81
2989.00,104
2988.00,123
2987.00,124
2986.00,123
2985.00,123
2984.00,123
2983.00,122
2982.00,124
2981.00,135
2980.00,137
2979.00,105
2978.00,76
2977.00,73
2976.00,80
2975.00,111
2974.00,145
2973.00,179
2972.00,205
2971.00,196
2970.00,186
2969.00,184
2968.00,183
2967.00,182
2966.00,182
2965.00,181
2964.00,179
2963.00,168
2962.00,158
2961.00,156
2960.00,153
2959.00,134
2958.00,114
2957.00,111
2956.00,111
2955.00,119
2954.00,128
2953.00,129
2952.00,130
2951.00,146
2950.00,165
2949.00,184
2948.00,203
2947.00,207
2946.00,206
2945.00,206
2944.00,205
2943.00,204
2942.00,203
2941.00,191
2940.00,171
2939.00,145
2938.00,116
2937.00,106
2936.00,115
2935.00,98
2934.00,51
2933.00,23
2932.00,23
2931.00,26
2930.00,35
2929.00,49
2928.00,76
2927.00,96
2926.00,97
2925.00,103
2924.00,136
2923.00,165
2922.00,168
2921.00,170
2920.00,191
2919.00,215
2918.00,233
2917.00,250
2916.00,266
2915.00,280
2914.00,261
2913.00,227
2912.00,235
2911.00,268
2910.00,306
2909.00,346
2908.00,358
2907.00,339
2906.00,327
2905.00,325
2904.00,326
2903.00,333
2902.00,338
2901.00,337
2900.00,330
2899.00,300
2898.00,267
2897.00,235
2896.00,205
2895.00,198
2894.00,196
2893.00,168
2892.00,130
2891.00,116
2890.00,115
2889.00,71
2888.00,-11
2887.00,-37
2886.00,22
2885.00,64
2884.00,65
2883.00,66
2882.00,73
2881.00,75
2880.00,49
2879.00,23
2878.00,18
2877.00,19
2876.00,39
2875.00,67
2874.00,82
2873.00,88
2872.00,88
2871.00,81
2870.00,71
2869.00,57
2868.00,47
2867.00,46
2866.00,48
2865.00,60
2864.00,73
2863.00,80
2862.00,86
2861.00,88
2860.00,87
2859.00,91
2858.00,97
2857.00,97
2856.00,90
2855.00,87
2854.00,93
2853.00,97
2852.00,91
2851.00,84
2850.00,77
2849.00,71
2848.00,64
2847.00,58
2846.00,63
2845.00,75
2844.00,76
2843.00,63
2842.00,50
2841.00,38
2840.00,30
2839.00,41
2838.00,51
2837.00,47
2836.00,40
2835.00,25
2834.00,8
2833.00,4
2832.00,10
2831.00,18
2830.00,29
2829.00,38
2828.00,38
2827.00,38
2826.00,38
2825.00,38
2824.00,42
2823.00,47
2822.00,49
2821.00,49
2820.00,46
2819.00,41
2818.00,36
2817.00,36
2816.00,36
2815.00,36
2814.00,35
2813.00,27
2812.00,16
2811.00,8
2810.00,3
2809.00,1
2808.00,7
2807.00,13
2806.00,23
2805.00,32
2804.00,34
2803.00,34
2802.00,41
2801.00,51
2800.00,59
2799.00,63
2798.00,67
2797.00,66
2796.00,68
2795.00,76
2794.00,85
2793.00,84
2792.00,78
2791.00,76
2790.00,76
2789.00,73
2788.00,68
2787.00,65
2786.00,69
2785.00,72
2784.00,61
2783.00,47
2782.00,38
2781.00,33
2780.00,26
2779.00,17
2778.00,11
2777.00,18
2776.00,27
2775.00,25
2774.00,20
2773.00,21
2772.00,25
2771.00,30
2770.00,34
2769.00,38
2768.00,43
2767.00,47
2766.00,48
2765.00,48
2764.00,45
2763.00,40
2762.00,36
2761.00,31
2760.00,25
2759.00,13
2758.00,0
2757.00,-4
2756.00,-4
2755.00,-4
2754.00,-4
2753.00,-5
2752.00,-9
2751.00,-13
2750.00,-10
2749.00,-6
2748.00,-2
2747.00,2
2746.00,7
2745.00,11
2744.00,14
2743.00,14
2742.00,15
2741.00,35
2740.00,63
2739.00,69
2738.00,44
2737.00,26
2736.00,32
2735.00,37
2734.00,1
2733.00,-46
2732.00,-55
2731.00,-27
2730.00,-6
2729.00,-5
2728.00,-5
2727.00,-5
2726.00,-5
2725.00,1
2724.00,12
2723.00,21
2722.00,21
2721.00,21
2720.00,28
2719.00,35
2718.00,33
2717.00,25
2716.00,20
2715.00,20
2714.00,19
2713.00,12
2712.00,5
2711.00,-2
2710.00,-10
2709.00,-15
2708.00,-15
2707.00,-14
2706.00,-8
2705.00,-1
2704.00,4
2703.00,7
2702.00,13
2701.00,23
2700.00,34
2699.00,44
2698.00,55
2697.00,58
2696.00,58
2695.00,57
2694.00,53
2693.00,49
2692.00,43
2691.00,36
2690.00,31
2689.00,27
2688.00,24
2687.00,20
2686.00,17
2685.00,16
2684.00,16
2683.00,16
2682.00,15
2681.00,15
2680.00,15
2679.00,15
2678.00,13
2677.00,9
2676.00,6
2675.00,3
2674.00,-1
2673.00,-7
2672.00,-14
2671.00,-17
2670.00,-17
2669.00,-16
2668.00,-13
2667.00,-10
2666.00,-7
2665.00,-3
2664.00,1
2663.00,7
2662.00,14
2661.00,26
2660.00,38
2659.00,43
2658.00,44
2657.00,45
2656.00,47
2655.00,47
2654.00,33
2653.00,15
2652.00,6
2651.00,9
2650.00,11
2649.00,8
2648.00,5
2647.00,6
2646.00,9
2645.00,10
2644.00,7
2643.00,5
2642.00,13
2641.00,25
2640.00,28
2639.00,19
2638.00,12
2637.00,13
2636.00,16
2635.00,18
2634.00,21
2633.00,23
2632.00,23
2631.00,23
2630.00,23
2629.00,23
2628.00,22
2627.00,22
2626.00,22
2625.00,22
2624.00,22
2623.00,22
2622.00,22
2621.00,21
2620.00,19
2619.00,16
2618.00,16
2617.00,18
2616.00,22
2615.00,29
2614.00,37
2613.00,38
2612.00,35
2611.00,33
2610.00,33
2609.00,33
2608.00,32
2607.00,32
2606.00,32
2605.00,32
2604.00,31
2603.00,25
2602.00,17
2601.00,12
2600.00,12
2599.00,12
2598.00,12
2597.00,12
2596.00,14
2595.00,19
2594.00,23
2593.00,19
2592.00,14
2591.00,11
2590.00,11
2589.00,11
2588.00,8
2587.00,6
2586.00,2
2585.00,-3
2584.00,-7
2583.00,-8
2582.00,-8
2581.00,3
2580.00,22
2579.00,36
2578.00,29
2577.00,19
2576.00,7
2575.00,-7
2574.00,-15
2573.00,3
2572.00,24
2571.00,32
2570.00,32
2569.00,29
2568.00,16
2567.00,3
2566.00,-2
2565.00,1
2564.00,2
2563.00,2
2562.00,2
2561.00,2
2560.00,2
2559.00,2
2558.00,2
2557.00,2
2556.00,4
2555.00,8
2554.00,12
2553.00,12
2552.00,12
2551.00,12
2550.00,12
2549.00,12
2548.00,14
2547.00,16
2546.00,18
2545.00,20
2544.00,22
2543.00,22
2542.00,22
2541.00,21
2540.00,19
2539.00,17
2538.00,18
2537.00,20
2536.00,22
2535.00,24
2534.00,26
2533.00,29
2532.00,33
2531.00,36
2530.00,36
2529.00,36
2528.00,37
2527.00,39
2526.00,40
2525.00,38
2524.00,36
2523.00,31
2522.00,25
2521.00,19
2520.00,17
2519.00,15
2518.00,15
2517.00,16
2516.00,18
2515.00,16
2514.00,14
2513.00,13
2512.00,13
2511.00,13
2510.00,11
2509.00,9
2508.00,6
2507.00,0
2506.00,-5
2505.00,-8
2504.00,-8
2503.00,-7
2502.00,-6
2501.00,-4
2500.00,-3
2499.00,-3
2498.00,-3
2497.00,2
2496.00,7
2495.00,12
2494.00,13
2493.00,15
2492.00,14
2491.00,12
2490.00,10
2489.00,6
2488.00,2
2487.00,4
2486.00,9
2485.00,14
2484.00,18
2483.00,21
2482.00,21
2481.00,16
2480.00,11
2479.00,18
2478.00,28
2477.00,36
2476.00,36
2475.00,36
2474.00,30
2473.00,19
2472.00,10
2471.00,5
2470.00,1
2469.00,-0
2468.00,1
2467.00,3
2466.00,2
2465.00,0
2464.00,-1
2463.00,2
2462.00,6
2461.00,6
2460.00,5
2459.00,3
2458.00,4
2457.00,6
2456.00,6
2455.00,5
2454.00,3
2453.00,3
2452.00,5
2451.00,6
2450.00,1
2449.00,-4
2448.00,-6
2447.00,-3
2446.00,0
2445.00,3
2444.00,4
2443.00,6
2442.00,7
2441.00,9
2440.00,9
2439.00,9
2438.00,9
2437.00,9
2436.00,9
2435.00,9
2434.00,9
2433.00,9
2432.00,7
2431.00,4
2430.00,1
2429.00,0
2428.00,0
2427.00,-0
2426.00,-2
2425.00,-3
2424.00,-4
2423.00,-4
2422.00,-4
2421.00,-3
2420.00,-2
2419.00,-1
2418.00,-4
2417.00,-7
2416.00,-14
2415.00,-26
2414.00,-37
2413.00,-18
2412.00,14
2411.00,35
2410.00,11
2409.00,-19
2408.00,-37
2407.00,-37
2406.00,-37
2405.00,-21
2404.00,3
2403.00,22
2402.00,16
2401.00,5
2400.00,-4
2399.00,-10
2398.00,-16
2397.00,-12
2396.00,-2
2395.00,8
2394.00,9
2393.00,9
2392.00,9
2391.00,9
2390.00,9
2389.00,9
2388.00,9
2387.00,9
2386.00,7
2385.00,6
2384.00,4
2383.00,3
2382.00,1
2381.00,0
2380.00,0
2379.00,0
2378.00,1
2377.00,2
2376.00,3
2375.00,4
2374.00,4
2373.00,3
2372.00,3
2371.00,3
2370.00,3
2369.00,3
2368.00,3
2367.00,3
2366.00,3
2365.00,3
2364.00,0
2363.00,-3
2362.00,-5
2361.00,-6
2360.00,-8
2359.00,-6
2358.00,-2
2357.00,1
2356.00,3
2355.00,5
2354.00,6
2353.00,6
2352.00,5
2351.00,5
2350.00,5
2349.00,5
2348.00,4
2347.00,3
2346.00,2
2345.00,3
2344.00,6
2343.00,7
2342.00,4
2341.00,0
2340.00,-3
2339.00,-4
2338.00,-6
2337.00,-6
2336.00,-6
2335.00,-6
2334.00,-7
2333.00,-7
2332.00,-7
2331.00,-8
2330.00,-9
2329.00,-10
2328.00,-9
2327.00,-8
2326.00,-7
2325.00,-7
2324.00,-7
2323.00,-4
2322.00,1
2321.00,5
2320.00,1
2319.00,-5
2318.00,-10
2317.00,-11
2316.00,-11
2315.00,-9
2314.00,-2
2313.00,6
2312.00,10
2311.00,11
2310.00,12
2309.00,12
2308.00,10
2307.00,9
2306.00,10
2305.00,11
2304.00,12
2303.00,11
2302.00,9
2301.00,9
2300.00,10
2299.00,11
2298.00,12
2297.00,12
2296.00,12
2295.00,12
2294.00,13
2293.00,14
2292.00,14
2291.00,12
2290.00,11
2289.00,11
2288.00,11
2287.00,11
2286.00,11
2285.00,11
2284.00,10
2283.00,7
2282.00,5
2281.00,3
2280.00,2
2279.00,1
2278.00,1
2277.00,2
2276.00,4
2275.00,6
2274.00,8
2273.00,10
2272.00,11
2271.00,12
2270.00,13
2269.00,13
2268.00,13
2267.00,12
2266.00,11
2265.00,10
2264.00,9
2263.00,8
2262.00,6
2261.00,4
2260.00,0
2259.00,-3
2258.00,-4
2257.00,-4
2256.00,-4
2255.00,-3
2254.00,-2
2253.00,-1
2252.00,-1
2251.00,-1
2250.00,-1
2249.00,-3
2248.00,-4
2247.00,-3
2246.00,-0
2245.00,3
2244.00,5
2243.00,6
2242.00,7
2241.00,6
2240.00,2
2239.00,-1
2238.00,-6
2237.00,-11
2236.00,-16
2235.00,-11
2234.00,-4
2233.00,3
2232.00,5
2231.00,6
2230.00,6
2229.00,-1
2228.00,-9
2227.00,-12
2226.00,-1
2225.00,11
2224.00,21
2223.00,28
2222.00,34
2221.00,33
2220.00,23
2219.00,12
2218.00,8
2217.00,10
2216.00,12
2215.00,13
2214.00,13
2213.00,13
2212.00,10
2211.00,7
2210.00,4
2209.00,4
2208.00,5
2207.00,6
2206.00,6
2205.00,6
2204.00,6
2203.00,6
2202.00,6
2201.00,5
2200.00,3
2199.00,-1
2198.00,-3
2197.00,0
2196.00,3
2195.00,5
2194.00,2
2193.00,-1
2192.00,-3
2191.00,-2
2190.00,-1
2189.00,-1
2188.00,-1
2187.00,-1
2186.00,1
2185.00,5
2184.00,9
2183.00,10
2182.00,8
2181.00,6
2180.00,6
2179.00,8
2178.00,10
2177.00,9
2176.00,7
2175.00,5
2174.00,7
2173.00,11
2172.00,15
2171.00,14
2170.00,11
2169.00,8
2168.00,7
2167.00,7
2166.00,7
2165.00,6
2164.00,4
2163.00,2
2162.00,3
2161.00,5
2160.00,6
2159.00,5
2158.00,3
2157.00,1
2156.00,1
2155.00,1
2154.00,1
2153.00,-0
2152.00,-1
2151.00,-2
2150.00,-3
2149.00,-5
2148.00,-5
2147.00,-6
2146.00,-6
2145.00,-6
2144.00,-4
2143.00,-2
2142.00,-0
2141.00,-2
2140.00,-4
2139.00,-6
2138.00,-6
2137.00,-6
2136.00,-6
2135.00,-4
2134.00,-3
2133.00,-1
2132.00,-1
2131.00,-1
2130.00,-1
2129.00,0
2128.00,1
2127.00,2
2126.00,2
2125.00,2
2124.00,2
2123.00,3
2122.00,5
2121.00,6
2120.00,7
2119.00,8
2118.00,9
2117.00,9
2116.00,9
2115.00,9
2114.00,8
2113.00,8
2112.00,8
2111.00,7
2110.00,6
2109.00,5
2108.00,4
2107.00,3
2106.00,2
2105.00,2
2104.00,2
2103.00,2
2102.00,1
2101.00,-0
2100.00,-1
2099.00,-1
2098.00,-2
2097.00,-2
2096.00,-2
2095.00,-2
2094.00,-2
2093.00,-2
2092.00,-1
2091.00,-0
2090.00,2
2089.00,5
2088.00,8
2087.00,9
2086.00,9
2085.00,9
2084.00,8
2083.00,6
2082.00,4
2081.00,4
2080.00,4
2079.00,5
2078.00,4
2077.00,3
2076.00,1
2075.00,0
2074.00,1
2073.00,2
2072.00,2
2071.00,2
2070.00,2
2069.00,2
2068.00,3
2067.00,4
2066.00,5
2065.00,5
2064.00,5
2063.00,5
2062.00,5
2061.00,5
2060.00,4
2059.00,4
2058.00,4
2057.00,4
2056.00,6
2055.00,7
2054.00,9
2053.00,8
2052.00,6
2051.00,5
2050.00,4
2049.00,3
2048.00,3
2047.00,3
2046.00,3
2045.00,4
2044.00,3
2043.00,3
2042.00,2
2041.00,1
2040.00,-1
2039.00,-2
2038.00,-2
2037.00,-0
2036.00,2
2035.00,3
2034.00,5
2033.00,7
2032.00,6
2031.00,-2
2030.00,-10
2029.00,-14
2028.00,-8
2027.00,-0
2026.00,6
2025.00,3
2024.00,-0
2023.00,-4
2022.00,-8
2021.00,-13
2020.00,-17
2019.00,-15
2018.00,-11
2017.00,-6
2016.00,-5
2015.00,-5
2014.00,-5
2013.00,-6
2012.00,-7
2011.00,-8
2010.00,-8
2009.00,-7
2008.00,-6
2007.00,-5
2006.00,-5
2005.00,-5
2004.00,-5
2003.00,-3
2002.00,0
2001.00,2
2000.00,3
1999.00,3
1998.00,2
1997.00,2
1996.00,2
1995.00,2
1994.00,3
1993.00,4
1992.00,5
1991.00,5
1990.00,6
1989.00,6
1988.00,7
1987.00,7
1986.00,8
1985.00,8
1984.00,7
1983.00,5
1982.00,4
1981.00,4
1980.00,3
1979.00,3
1978.00,2
1977.00,2
1976.00,2
1975.00,2
1974.00,2
1973.00,2
1972.00,2
1971.00,2
1970.00,2
1969.00,2
1968.00,2
1967.00,2
1966.00,2
1965.00,2
1964.00,2
1963.00,1
1962.00,1
1961.00,1
1960.00,1
1959.00,2
1958.00,4
1957.00,5
1956.00,6
1955.00,6
1954.00,6
1953.00,7
1952.00,9
1951.00,10
1950.00,11
1949.00,11
1948.00,11
1947.00,11
1946.00,11
1945.00,11
1944.00,10
1943.00,10
1942.00,9
1941.00,9
1940.00,9
1939.00,9
1938.00,9
1937.00,9
1936.00,9
1935.00,9
1934.00,8
1933.00,8
1932.00,8
1931.00,8
1930.00,8
1929.00,8
1928.00,8
1927.00,9
1926.00,11
1925.00,12
1924.00,13
1923.00,13
1922.00,13
1921.00,12
1920.00,11
1919.00,10
1918.00,8
1917.00,8
1916.00,8
1915.00,8
1914.00,7
1913.00,7
1912.00,6
1911.00,6
1910.00,6
1909.00,6
1908.00,6
1907.00,6
1906.00,6
1905.00,6
1904.00,6
1903.00,7
1902.00,7
1901.00,7
1900.00,7
1899.00,7
1898.00,8
1897.00,9
1896.00,11
1895.00,12
1894.00,12
1893.00,13
1892.00,13
1891.00,13
1890.00,13
1889.00,13
1888.00,15
1887.00,19
1886.00,23
1885.00,23
1884.00,20
1883.00,16
1882.00,14
1881.00,16
1880.00,18
1879.00,20
1878.00,19
1877.00,18
1876.00,17
1875.00,17
1874.00,18
1873.00,18
1872.00,18
1871.00,16
1870.00,15
1869.00,15
1868.00,15
1867.00,17
1866.00,18
1865.00,17
1864.00,16
1863.00,14
1862.00,15
1861.00,17
1860.00,18
1859.00,20
1858.00,20
1857.00,20
1856.00,20
1855.00,19
1854.00,19
1853.00,18
1852.00,16
1851.00,13
1850.00,11
1849.00,9
1848.00,12
1847.00,14
1846.00,16
1845.00,16
1844.00,15
1843.00,15
1842.00,15
1841.00,16
1840.00,17
1839.00,17
1838.00,17
1837.00,17
1836.00,17
1835.00,17
1834.00,17
1833.00,18
1832.00,18
1831.00,18
1830.00,18
1829.00,17
1828.00,16
1827.00,16
1826.00,15
1825.00,15
1824.00,15
1823.00,15
1822.00,16
1821.00,17
1820.00,18
1819.00,19
1818.00,19
1817.00,18
1816.00,18
1815.00,19
1814.00,19
1813.00,20
1812.00,20
1811.00,20
1810.00,20
1809.00,21
1808.00,22
1807.00,24
1806.00,25
1805.00,25
1804.00,25
1803.00,25
1802.00,25
1801.00,24
1800.00,24
1799.00,23
1798.00,22
1797.00,22
1796.00,21
1795.00,21
1794.00,21
1793.00,21
1792.00,20
1791.00,19
1790.00,19
1789.00,18
1788.00,17
1787.00,17
1786.00,16
1785.00,16
1784.00,16
1783.00,16
1782.00,17
1781.00,17
1780.00,17
1779.00,18
1778.00,18
1777.00,18
1776.00,18
1775.00,17
1774.00,16
1773.00,15
1772.00,14
1771.00,14
1770.00,14
1769.00,14
1768.00,15
1767.00,18
1766.00,20
1765.00,22
1764.00,21
1763.00,21
1762.00,21
1761.00,21
1760.00,21
1759.00,21
1758.00,21
1757.00,20
1756.00,20
1755.00,20
1754.00,19
1753.00,18
1752.00,17
1751.00,17
1750.00,17
1749.00,17
1748.00,17
1747.00,17
1746.00,17
1745.00,17
1744.00,17
1743.00,17
1742.00,16
1741.00,16
1740.00,16
1739.00,16
1738.00,16
1737.00,16
1736.00,16
1735.00,15
1734.00,16
1733.00,16
1732.00,17
1731.00,17
1730.00,17
1729.00,17
1728.00,16
1727.00,17
1726.00,19
1725.00,20
1724.00,21
1723.00,21
1722.00,21
1721.00,21
1720.00,21
1719.00,20
1718.00,20
1717.00,20
1716.00,19
1715.00,19
1714.00,18
1713.00,19
1712.00,19
1711.00,20
1710.00,20
1709.00,20
1708.00,20
1707.00,20
1706.00,18
1705.00,17
1704.00,16
1703.00,15
1702.00,17
1701.00,18
1700.00,19
1699.00,19
1698.00,20
1697.00,20
1696.00,21
1695.00,22
1694.00,23
1693.00,24
1692.00,24
1691.00,24
1690.00,24
1689.00,24
1688.00,23
1687.00,23
1686.00,22
1685.00,23
1684.00,23
1683.00,24
1682.00,24
1681.00,24
1680.00,23
1679.00,23
1678.00,23
1677.00,23
1676.00,23
1675.00,23
1674.00,23
1673.00,24
1672.00,24
1671.00,26
1670.00,27
1669.00,28
1668.00,28
1667.00,26
1666.00,25
1665.00,24
1664.00,25
1663.00,27
1662.00,28
1661.00,28
1660.00,27
1659.00,26
1658.00,25
1657.00,25
1656.00,26
1655.00,26
1654.00,26
1653.00,25
1652.00,24
1651.00,24
1650.00,23
1649.00,23
1648.00,23
1647.00,23
1646.00,23
1645.00,22
1644.00,22
1643.00,23
1642.00,23
1641.00,23
1640.00,24
1639.00,24
1638.00,24
1637.00,24
1636.00,24
1635.00,24
1634.00,24
1633.00,24
1632.00,23
1631.00,23
1630.00,22
1629.00,22
1628.00,21
1627.00,21
1626.00,21
1625.00,21
1624.00,21
1623.00,22
1622.00,22
1621.00,23
1620.00,24
1619.00,26
1618.00,26
1617.00,26
1616.00,26
1615.00,26
1614.00,26
1613.00,27
1612.00,27
1611.00,27
1610.00,28
1609.00,28
1608.00,28
1607.00,29
1606.00,29
1605.00,30
1604.00,29
1603.00,28
1602.00,26
1601.00,25
1600.00,25
1599.00,25
1598.00,25
1597.00,25
1596.00,24
1595.00,23
1594.00,23
1593.00,24
1592.00,25
1591.00,26
1590.00,26
1589.00,24
1588.00,21
1587.00,19
1586.00,18
1585.00,17
1584.00,15
1583.00,15
1582.00,19
1581.00,24
1580.00,29
1579.00,31
1578.00,30
1577.00,30
1576.00,29
1575.00,30
1574.00,31
1573.00,32
1572.00,33
1571.00,34
1570.00,34
1569.00,34
1568.00,35
1567.00,34
1566.00,34
1565.00,34
1564.00,34
1563.00,34
1562.00,34
1561.00,33
1560.00,32
1559.00,31
1558.00,30
1557.00,29
1556.00,28
1555.00,28
1554.00,28
1553.00,28
1552.00,28
1551.00,28
1550.00,28
1549.00,28
1548.00,28
1547.00,28
1546.00,28
1545.00,28
1544.00,27
1543.00,27
1542.00,26
1541.00,24
1540.00,23
1539.00,23
1538.00,23
1537.00,23
1536.00,23
1535.00,22
1534.00,22
1533.00,22
1532.00,22
1531.00,22
1530.00,22
1529.00,22
1528.00,22
1527.00,23
1526.00,23
1525.00,23
1524.00,25
1523.00,26
1522.00,28
1521.00,29
1520.00,29
1519.00,29
1518.00,29
1517.00,30
1516.00,30
1515.00,31
1514.00,31
1513.00,31
1512.00,30
1511.00,30
1510.00,30
1509.00,30
1508.00,31
1507.00,32
1506.00,33
1505.00,33
1504.00,33
1503.00,33
1502.00,33
1501.00,33
1500.00,33
1499.00,33
1498.00,33
1497.00,33
1496.00,33
1495.00,33
1494.00,33
1493.00,33
1492.00,33
1491.00,33
1490.00,33
1489.00,33
1488.00,33
1487.00,33
1486.00,33
1485.00,33
1484.00,33
1483.00,32
1482.00,31
1481.00,30
1480.00,30
1479.00,29
1478.00,28
1477.00,28
1476.00,27
1475.00,27
1474.00,27
1473.00,27
1472.00,27
1471.00,27
1470.00,27
1469.00,28
1468.00,29
1467.00,30
1466.00,32
1465.00,32
1464.00,32
1463.00,32
1462.00,33
1461.00,33
1460.00,33
1459.00,32
1458.00,33
1457.00,33
1456.00,33
1455.00,33
1454.00,33
1453.00,34
1452.00,35
1451.00,35
1450.00,35
1449.00,35
1448.00,35
1447.00,35
1446.00,35
1445.00,34
1444.00,34
1443.00,33
1442.00,33
1441.00,33
1440.00,33
1439.00,33
1438.00,33
1437.00,33
1436.00,34
1435.00,34
1434.00,35
1433.00,36
1432.00,37
1431.00,38
1430.00,39
1429.00,40
1428.00,41
1427.00,42
1426.00,43
1425.00,44
1424.00,44
1423.00,45
1422.00,46
1421.00,47
1420.00,47
1419.00,47
1418.00,48
1417.00,48
1416.00,48
1415.00,49
1414.00,50
1413.00,51
1412.00,51
1411.00,50
1410.00,50
1409.00,50
1408.00,51
1407.00,52
1406.00,53
1405.00,53
1404.00,52
1403.00,51
1402.00,50
1401.00,49
1400.00,49
1399.00,49
1398.00,48
1397.00,46
1396.00,42
1395.00,39
1394.00,36
1393.00,35
1392.00,35
1391.00,35
1390.00,35
1389.00,35
1388.00,35
1387.00,35
1386.00,35
1385.00,35
1384.00,36
1383.00,36
1382.00,36
1381.00,37
1380.00,38
1379.00,39
1378.00,39
1377.00,38
1376.00,38
1375.00,37
1374.00,37
1373.00,36
1372.00,35
1371.00,34
1370.00,34
1369.00,33
1368.00,33
1367.00,33
1366.00,34
1365.00,35
1364.00,36
1363.00,36
1362.00,36
1361.00,35
1360.00,34
1359.00,34
1358.00,33
1357.00,33
1356.00,33
1355.00,33
1354.00,33
1353.00,33
1352.00,34
1351.00,34
1350.00,34
1349.00,34
1348.00,34
1347.00,34
1346.00,34
1345.00,34
1344.00,33
1343.00,33
1342.00,33
1341.00,33
1340.00,33
1339.00,33
1338.00,33
1337.00,33
1336.00,33
1335.00,33
1334.00,33
1333.00,33
1332.00,32
1331.00,31
1330.00,30
1329.00,29
1328.00,28
1327.00,28
1326.00,27
1325.00,26
1324.00,26
1323.00,26
1322.00,26
1321.00,26
1320.00,26
1319.00,26
1318.00,25
1317.00,25
1316.00,26
1315.00,26
1314.00,26
1313.00,27
1312.00,27
1311.00,27
1310.00,27
1309.00,27
1308.00,29
1307.00,30
1306.00,32
1305.00,33
1304.00,33
1303.00,33
1302.00,33
1301.00,32
1300.00,32
1299.00,32
1298.00,32
1297.00,32
1296.00,30
1295.00,28
1294.00,26
1293.00,25
1292.00,24
1291.00,23
1290.00,23
1289.00,22
1288.00,22
1287.00,22
1286.00,22
1285.00,22
1284.00,22
1283.00,22
1282.00,21
1281.00,21
1280.00,21
1279.00,21
1278.00,20
1277.00,21
1276.00,22
1275.00,23
1274.00,24
1273.00,24
1272.00,24
1271.00,24
1270.00,24
1269.00,24
1268.00,24
1267.00,23
1266.00,23
1265.00,24
1264.00,25
1263.00,26
1262.00,27
1261.00,27
1260.00,27
1259.00,26
1258.00,25
1257.00,24
1256.00,22
1255.00,20
1254.00,18
1253.00,18
1252.00,18
1251.00,17
1250.00,17
1249.00,17
1248.00,17
1247.00,17
1246.00,17
1245.00,16
1244.00,15
1243.00,14
1242.00,13
1241.00,13
1240.00,13
1239.00,13
1238.00,13
1237.00,13
1236.00,13
1235.00,14
1234.00,14
1233.00,14
1232.00,14
1231.00,14
1230.00,14
1229.00,13
1228.00,13
1227.00,13
1226.00,12
1225.00,12
1224.00,12
1223.00,12
1222.00,12
1221.00,12
1220.00,13
1219.00,13
1218.00,14
1217.00,14
1216.00,13
1215.00,13
1214.00,13
1213.00,13
1212.00,12
1211.00,12
1210.00,12
1209.00,12
1208.00,11
1207.00,11
1206.00,11
1205.00,11
1204.00,11
1203.00,12
1202.00,12
1201.00,12
1200.00,11
1199.00,11
1198.00,11
1197.00,10
1196.00,10
1195.00,10
1194.00,10
1193.00,11
1192.00,11
1191.00,12
1190.00,12
1189.00,13
1188.00,13
1187.00,13
1186.00,14
1185.00,13
1184.00,13
1183.00,12
1182.00,12
1181.00,12
1180.00,12
1179.00,11
1178.00,11
1177.00,11
1176.00,10
1175.00,9
1174.00,8
1173.00,8
1172.00,8
1171.00,8
1170.00,8
1169.00,7
1168.00,7
1167.00,6
1166.00,6
1165.00,5
1164.00,6
1163.00,6
1162.00,7
1161.00,7
1160.00,7
1159.00,8
1158.00,8
1157.00,8
1156.00,7
1155.00,7
1154.00,6
1153.00,6
1152.00,6
1151.00,6
1150.00,6
1149.00,6
1148.00,6
1147.00,7
1146.00,7
1145.00,8
1144.00,8
1143.00,8
1142.00,8
1141.00,8
1140.00,9
1139.00,9
1138.00,9
1137.00,9
1136.00,9
1135.00,9
1134.00,9
1133.00,9
1132.00,9
1131.00,9
1130.00,9
1129.00,9
1128.00,8
1127.00,8
1126.00,8
1125.00,7
1124.00,7
1123.00,7
1122.00,7
1121.00,7
1120.00,6
1119.00,6
1118.00,5
1117.00,5
1116.00,4
1115.00,4
1114.00,4
1113.00,4
1112.00,4
1111.00,4
1110.00,4
1109.00,4
1108.00,3
1107.00,4
1106.00,4
1105.00,4
1104.00,4
1103.00,4
1102.00,3
1101.00,3
1100.00,3
1099.00,2
1098.00,2
1097.00,2
1096.00,2
1095.00,2
1094.00,2
1093.00,1
1092.00,1
1091.00,2
1090.00,3
1089.00,4
1088.00,5
1087.00,5
1086.00,5
1085.00,5
1084.00,5
1083.00,5
1082.00,5
1081.00,5
1080.00,5
1079.00,5
1078.00,4
1077.00,4
1076.00,3
1075.00,3
1074.00,4
1073.00,5
1072.00,6
1071.00,7
1070.00,6
1069.00,5
1068.00,3
1067.00,2
1066.00,2
1065.00,2
1064.00,3
1063.00,3
1062.00,3
1061.00,3
1060.00,2
1059.00,1
1058.00,1
1057.00,1
1056.00,0
1055.00,0
1054.00,0
1053.00,1
1052.00,1
1051.00,1
1050.00,1
1049.00,1
1048.00,1
1047.00,1
1046.00,1
1045.00,1
1044.00,1
1043.00,1
1042.00,1
1041.00,1
1040.00,1
1039.00,0
1038.00,0
1037.00,0
1036.00,-0
1035.00,-0
1034.00,-0
1033.00,-1
1032.00,-1
1031.00,-2
1030.00,-3
1029.00,-4
1028.00,-4
1027.00,-4
1026.00,-4
1025.00,-4
1024.00,-4
1023.00,-4
1022.00,-4
1021.00,-4
1020.00,-4
1019.00,-4
1018.00,-4
1017.00,-4
1016.00,-4
1015.00,-4
1014.00,-5
1013.00,-5
1012.00,-5
1011.00,-4
1010.00,-4
1009.00,-3
1008.00,-3
1007.00,-2
1006.00,-2
1005.00,-2
1004.00,-2
1003.00,-2
1002.00,-2
1001.00,-2
1000.00,-3
999.00,-3
998.00,-3
997.00,-3
996.00,-3
995.00,-3
994.00,-2
993.00,-2
992.00,-2
991.00,-1
990.00,-1
989.00,-1
988.00,-1
987.00,-1
986.00,-1
985.00,-1
984.00,-1
983.00,-1
982.00,-1
981.00,-1
980.00,-0
979.00,-0
978.00,0
977.00,-0
976.00,-0
975.00,-0
974.00,-1
973.00,-1
972.00,-1
971.00,-1
970.00,-1
969.00,-1
968.00,-0
967.00,1
966.00,1
965.00,1
964.00,1
963.00,-0
962.00,-1
961.00,-1
960.00,-1
959.00,-1
958.00,0
957.00,1
956.00,1
955.00,1
954.00,1
953.00,1
952.00,1
951.00,1
950.00,0
949.00,0
948.00,0
947.00,-0
946.00,-1
945.00,-2
944.00,-3
943.00,-3
942.00,-3
941.00,-2
940.00,-2
939.00,-2
938.00,-2
937.00,-2
936.00,-2
935.00,-2
934.00,-2
933.00,-2
932.00,-2
931.00,-2
930.00,-2
929.00,-2
928.00,-2
927.00,-2
926.00,-1
925.00,-1
924.00,0
923.00,1
922.00,2
921.00,2
920.00,2
919.00,3
918.00,3
917.00,3
916.00,3
915.00,3
914.00,3
913.00,3
912.00,2
911.00,2
910.00,1
909.00,1
908.00,1
907.00,1
906.00,1
905.00,1
904.00,0
903.00,0
902.00,0
901.00,0
900.00,0
899.00,0
898.00,0
897.00,0
896.00,0
895.00,0
894.00,0
893.00,0
892.00,0
891.00,1
890.00,2
889.00,4
888.00,5
887.00,6
886.00,6
885.00,6
884.00,7
883.00,7
882.00,7
881.00,7
880.00,6
879.00,6
878.00,6
877.00,6
876.00,6
875.00,7
874.00,7
873.00,7
872.00,8
871.00,9
870.00,9
869.00,9
868.00,9
867.00,9
866.00,9
865.00,10
864.00,10
863.00,11
862.00,12
861.00,12
860.00,12
859.00,12
858.00,12
857.00,12
856.00,11
855.00,10
854.00,9
853.00,8
852.00,7
851.00,6
850.00,6
849.00,5
848.00,5
847.00,5
846.00,5
845.00,4
844.00,4
843.00,4
842.00,4
841.00,3
840.00,3
839.00,3
838.00,2
837.00,2
836.00,2
835.00,1
834.00,1
833.00,0
832.00,-0
831.00,-1
830.00,-2
829.00,-2
828.00,-2
827.00,-2
826.00,-2
825.00,-2
824.00,-2
823.00,-2
822.00,-2
821.00,-2
820.00,-2
819.00,-2
818.00,-2
817.00,-2
816.00,-1
815.00,1
814.00,3
813.00,4
812.00,6
811.00,6
810.00,6
809.00,6
808.00,7
807.00,8
806.00,9
805.00,11
804.00,12
803.00,13
802.00,13
801.00,13
800.00,12
799.00,12
798.00,12
797.00,12
796.00,12
795.00,12
794.00,12
793.00,11
792.00,11
791.00,11
790.00,11
789.00,11
788.00,10
787.00,10
786.00,10
785.00,9
784.00,8
783.00,6
782.00,5
781.00,3
780.00,3
779.00,4
778.00,4
777.00,4
776.00,4
775.00,4
774.00,3
773.00,2
772.00,2
771.00,2
770.00,2
769.00,2
768.00,2
767.00,2
766.00,1
765.00,1
764.00,0
763.00,-0
762.00,-0
761.00,-1
760.00,-1
759.00,-1
758.00,-1
757.00,-0
756.00,-0
755.00,0
754.00,0
753.00,1
752.00,1
751.00,1
750.00,1
749.00,1
748.00,1
747.00,1
746.00,1
745.00,1
744.00,2
743.00,3
742.00,3
741.00,4
740.00,5
739.00,5
738.00,5
737.00,6
736.00,6
735.00,6
734.00,6
733.00,6
732.00,6
731.00,6
730.00,7
729.00,7
728.00,8
727.00,8
726.00,9
725.00,10
724.00,11
723.00,12
722.00,14
721.00,17
720.00,21
719.00,24
718.00,28
717.00,32
716.00,36
715.00,41
714.00,46
713.00,50
712.00,50
711.00,50
710.00,50
709.00,50
708.00,50
707.00,50
706.00,49
705.00,49
704.00,49
703.00,46
702.00,43
701.00,40
700.00,36
699.00,34
698.00,34
697.00,33
696.00,33
695.00,33
694.00,32
693.00,31
692.00,30
691.00,29
690.00,28
689.00,28
688.00,27
687.00,27
686.00,26
685.00,26
684.00,25
683.00,24
682.00,24
681.00,23
680.00,21
679.00,20
678.00,19
677.00,17
676.00,16
675.00,14
674.00,13
673.00,11
672.00,10
671.00,9
670.00,8
669.00,8
668.00,7
667.00,6
666.00,6
665.00,6
664.00,6
663.00,6
662.00,6
661.00,5
660.00,4
659.00,3
658.00,3
657.00,3
656.00,3
655.00,4
654.00,4
653.00,4
652.00,4
651.00,5
650.00,5
649.00,5
648.00,5
647.00,4
646.00,4
645.00,4
644.00,3
643.00,3
642.00,3
641.00,3
640.00,3
639.00,3
638.00,3
637.00,4
636.00,4
635.00,4
634.00,4
633.00,4
632.00,4
631.00,4
630.00,4
629.00,3
628.00,2
627.00,1
626.00,-0
625.00,-1
624.00,-0
623.00,0
622.00,1
621.00,1
620.00,1
619.00,0
618.00,-0
617.00,-1
616.00,-1
615.00,-1
614.00,-1
613.00,-2
612.00,-2
611.00,-2
610.00,-1
609.00,-1
608.00,-0
607.00,0
606.00,0
605.00,0
604.00,0
603.00,0
602.00,0
601.00,-0
600.00,-0
599.00,-0
598.00,-0
597.00,0
596.00,0
595.00,0
594.00,1
593.00,1
592.00,1
591.00,0
590.00,0
589.00,-0
588.00,-1
587.00,-1
586.00,-1
585.00,-2
584.00,-2
583.00,-2
582.00,-2
581.00,-2
580.00,-2
579.00,-2
578.00,-2
577.00,-1
576.00,-1
575.00,-1
574.00,-0
573.00,-0
572.00,-0
571.00,-0
570.00,-0
569.00,-0
568.00,-0
567.00,-1
566.00,-1
565.00,-1
564.00,-1
563.00,-1
562.00,-1
561.00,-1
560.00,-1
559.00,-1
558.00,-1
557.00,-1
556.00,-1
555.00,-1
554.00,-1
553.00,-0
552.00,0
551.00,1
550.00,2
549.00,2
548.00,2
547.00,2
546.00,3
545.00,3
544.00,4
543.00,4
542.00,5
541.00,6
540.00,7
539.00,7
538.00,8
537.00,9
536.00,9
535.00,9
534.00,9
533.00,9
532.00,9
531.00,9
530.00,10
529.00,11
528.00,12
527.00,13
526.00,14
525.00,16
524.00,17
523.00,18
522.00,19
521.00,20
520.00,21
519.00,23
518.00,24
517.00,25
516.00,26
515.00,27
514.00,28
513.00,28
512.00,29
511.00,32
510.00,35
509.00,38
508.00,41
507.00,44
506.00,47
505.00,49
504.00,52
503.00,55
502.00,59
501.00,66
500.00,72
499.00,79
498.00,86
497.00,90
496.00,91
495.00,92
494.00,94
493.00,95
492.00,96
491.00,95
490.00,95
489.00,95
488.00,95
487.00,94
486.00,94
485.00,93
484.00,93
483.00,91
482.00,85
481.00,78
480.00,72
479.00,66
478.00,59
477.00,54
476.00,49
475.00,43
474.00,38
473.00,34
472.00,31
471.00,29
470.00,26
469.00,24
468.00,22
467.00,20
466.00,18
465.00,16
464.00,15
463.00,14
462.00,13
461.00,13
460.00,13
459.00,12
458.00,11
457.00,11
456.00,10
455.00,9
454.00,8
453.00,7
452.00,6
451.00,5
450.00,4
449.00,3
448.00,3
447.00,3
446.00,3
445.00,3
444.00,2
443.00,2
442.00,1
441.00,1
440.00,-0
439.00,-0
438.00,0
437.00,0
436.00,1
435.00,1
434.00,1
433.00,1
432.00,1
431.00,1
430.00,1
429.00,1
428.00,1
427.00,0
426.00,-0
425.00,-0
424.00,-0
423.00,0
422.00,0
421.00,1
420.00,1
419.00,1
418.00,1
417.00,1
416.00,1
415.00,1
414.00,1
413.00,1
412.00,1
411.00,1
410.00,1
409.00,1
408.00,0
407.00,0
406.00,-0
405.00,-0
404.00,0
403.00,0
402.00,1
401.00,1
400.00,2
399.00,2
398.00,2
397.00,2
396.00,3
395.00,3
394.00,3
393.00,3
392.00,3
391.00,3
390.00,2
389.00,1
388.00,1
387.00,-0
386.00,-1
385.00,-0
384.00,0
383.00,1
382.00,2
381.00,3
380.00,3
379.00,3
378.00,3
377.00,3
376.00,2
375.00,2
374.00,2
373.00,2
372.00,1
371.00,1
370.00,1
369.00,1
368.00,1
367.00,1
366.00,1
365.00,1
364.00,1
363.00,1
362.00,0
361.00,0
360.00,-1
359.00,-2
358.00,-4
357.00,-5
356.00,-6
355.00,-6
354.00,-6
353.00,-7
352.00,-7
351.00,-7
350.00,-7
349.00,-7
348.00,-7
347.00,-7
346.00,-7
345.00,-6
344.00,-5
343.00,-4
342.00,-4
341.00,-3
340.00,-3
339.00,-2
338.00,-2
337.00,-2
336.00,-2
335.00,-1
334.00,-1
333.00,-1
332.00,-0
331.00,0
330.00,-0
329.00,-1
328.00,-1
327.00,-2
326.00,-2
325.00,-2
324.00,-2
323.00,-2
322.00,-2
321.00,-3
320.00,-2
319.00,-2
318.00,-2
317.00,-2
316.00,-2
315.00,-1
314.00,-1
313.00,-1
312.00,-1
311.00,-0
310.00,-0
309.00,-0
308.00,-0
307.00,-0
306.00,-0
305.00,-0
304.00,0
303.00,0
302.00,1
301.00,1
300.00,1
299.00,1
298.00,1
297.00,0
296.00,0
295.00,1
294.00,1
293.00,1
292.00,1
291.00,2
290.00,2
289.00,3
288.00,3
287.00,3
286.00,4
285.00,4
284.00,3
283.00,3
282.00,3
281.00,2
280.00,2
279.00,2
278.00,1
277.00,1
276.00,1
275.00,1
274.00,1
273.00,1
272.00,1
271.00,1
270.00,2
269.00,2
268.00,2
267.00,3
266.00,3
265.00,3
264.00,3
263.00,3
262.00,3
261.00,3
260.00,4
259.00,4
258.00,4
257.00,4
256.00,4
255.00,5
254.00,6
253.00,7
252.00,8
251.00,9
250.00,10
249.00,10
248.00,10
247.00,11
246.00,11
245.00,12
244.00,12
243.00,12
242.00,13
241.00,13
240.00,13
239.00,13
238.00,13
237.00,13
236.00,13
235.00,13
234.00,13
233.00,13
232.00,13
231.00,13
230.00,13
229.00,14
228.00,15
227.00,16
226.00,16
225.00,17
224.00,17
223.00,18
222.00,18
221.00,18
220.00,18
219.00,20
218.00,21
217.00,23
216.00,25
215.00,26
214.00,27
213.00,28
212.00,29
211.00,29
210.00,30
209.00,32
208.00,33
207.00,35
206.00,37
205.00,39
204.00,41
203.00,42
202.00,43
201.00,44
200.00,45
199.00,46
198.00,46
197.00,46
196.00,45
195.00,45
194.00,45
193.00,45
192.00,45
191.00,45
190.00,45
189.00,45
188.00,45
187.00,45
186.00,45
185.00,45
184.00,45
183.00,45
182.00,45
181.00,45
180.00,45
179.00,45
178.00,45
177.00,45
176.00,45
175.00,44
174.00,44
173.00,44
172.00,44
171.00,44
170.00,44
169.00,44
168.00,44
167.00,45
166.00,45
165.00,45
164.00,45
163.00,46
162.00,46
161.00,46
160.00,47
159.00,47
158.00,47
157.00,47
156.00,46
155.00,46
154.00,45
153.00,45
152.00,44
151.00,43
150.00,41
149.00,40
148.00,38
147.00,37
146.00,36
145.00,35
144.00,34
143.00,33
142.00,32
141.00,32
140.00,32
139.00,33
138.00,33
137.00,32
136.00,29
135.00,26
134.00,24
133.00,21
132.00,18
131.00,18
130.00,18
129.00,18
128.00,18
127.00,18
126.00,17
125.00,16
124.00,14
123.00,13
122.00,12
121.00,11
120.00,11
119.00,11
118.00,11
117.00,11
116.00,10
115.00,10
114.00,10
113.00,9
112.00,9
111.00,8
110.00,8
109.00,8
108.00,8
107.00,8
106.00,7
105.00,7
104.00,8
103.00,8
102.00,8
101.00,8
100.00,8
