Created as New Dataset,
Raman Shift / cm-1,INT
3200.00,71
3199.00,107
3198.00,154
3197.00,226
3196.00,312
3195.00,331
3194.00,329
3193.00,326
3192.00,286
3191.00,196
3190.00,165
3189.00,164
3188.00,163
3187.00,161
3186.00,159
3185.00,157
3184.00,153
3183.00,150
3182.00,149
3181.00,151
3180.00,154
3179.00,154
3178.00,131
3177.00,94
3176.00,115
3175.00,147
3174.00,150
3173.00,162
3172.00,200
3171.00,237
3170.00,271
3169.00,277
3168.00,276
3167.00,274
3166.00,238
3165.00,129
3164.00,76
3163.00,76
3162.00,75
3161.00,65
3160.00,4
3159.00,-37
3158.00,-6
3157.00,13
3156.00,13
3155.00,36
3154.00,63
3153.00,42
3152.00,15
3151.00,13
3150.00,-22
3149.00,-115
3148.00,-67
3147.00,89
3146.00,174
3145.00,223
3144.00,202
3143.00,185
3142.00,212
3141.00,216
3140.00,183
3139.00,80
3138.00,-55
3137.00,-43
3136.00,6
3135.00,12
3134.00,20
3133.00,47
3132.00,63
3131.00,62
3130.00,45
3129.00,19
3128.00,12
3127.00,12
3126.00,12
3125.00,12
3124.00,12
3123.00,42
3122.00,119
3121.00,168
3120.00,193
3119.00,199
3118.00,196
3117.00,175
3116.00,161
3115.00,204
3114.00,239
3113.00,239
3112.00,217
3111.00,169
3110.00,151
3109.00,156
3108.00,154
3107.00,146
3106.00,102
3105.00,60
3104.00,55
3103.00,49
3102.00,27
3101.00,12
3100.00,12
3099.00,12
3098.00,12
3097.00,27
3096.00,48
3095.00,53
3094.00,60
3093.00,116
3092.00,165
3091.00,149
3090.00,115
3089.00,51
3088.00,12
3087.00,12
3086.00,1
3085.00,-20
3084.00,-27
3083.00,-27
3082.00,-27
3081.00,-26
3080.00,-26
3079.00,-29
3078.00,-47
3077.00,-48
3076.00,7
3075.00,48
3074.00,49
3073.00,49
3072.00,48
3071.00,68
3070.00,107
3069.00,132
3068.00,147
3067.00,98
3066.00,27
3065.00,12
3064.00,8
3063.00,-24
3062.00,-57
3061.00,-77
3060.00,-79
3059.00,-29
3058.00,10
3057.00,11
3056.00,18
3055.00,35
3054.00,45
3053.00,45
3052.00,44
3051.00,44
3050.00,55
3049.00,71
3048.00,76
3047.00,75
3046.00,62
3045.00,45
3044.00,28
3043.00,15
3042.00,27
3041.00,38
3040.00,25
3039.00,9
3038.00,-7
3037.00,-15
3036.00,-1
3035.00,15
3034.00,30
3033.00,35
3032.00,20
3031.00,17
3030.00,32
3029.00,54
3028.00,84
3027.00,98
3026.00,98
3025.00,97
3024.00,98
3023.00,242
3022.00,467
3021.00,426
3020.00,241
3019.00,199
3018.00,230
3017.00,341
3016.00,467
3015.00,393
3014.00,258
3013.00,193
3012.00,150
3011.00,108
3010.00,73
3009.00,88
3008.00,108
3007.00,78
3006.00,46
3005.00,75
3004.00,105
3003.00,74
3002.00,40
3001.00,36
3000.00,40
2999.00,63
2998.00,79
2997.00,58
2996.00,41
2995.00,62
2994.00,78
2993.00,57
2992.00,38
2991.00,48
2990.00,57
2989.00,58
2988.00,58
2987.00,57
2986.00,57
2985.00,57
2984.00,57
2983.00,57
2982.00,54
2981.00,43
2980.00,33
2979.00,33
2978.00,32
2977.00,32
2976.00,37
2975.00,58
2974.00,78
2973.00,91
2972.00,100
2971.00,100
2970.00,99
2969.00,99
2968.00,98
2967.00,98
2966.00,94
2965.00,74
2964.00,53
2963.00,41
2962.00,32
2961.00,30
2960.00,29
2959.00,20
2958.00,10
2957.00,8
2956.00,10
2955.00,27
2954.00,47
2953.00,59
2952.00,68
2951.00,62
2950.00,53
2949.00,65
2948.00,84
2947.00,89
2946.00,89
2945.00,81
2944.00,71
2943.00,68
2942.00,68
2941.00,67
2940.00,67
2939.00,67
2938.00,66
2937.00,71
2936.00,80
2935.00,55
2934.00,-12
2933.00,-50
2932.00,-50
2931.00,-47
2930.00,-37
2929.00,-22
2928.00,4
2927.00,29
2926.00,47
2925.00,63
2924.00,72
2923.00,80
2922.00,89
2921.00,96
2920.00,97
2919.00,95
2918.00,88
2917.00,80
2916.00,77
2915.00,76
2914.00,52
2913.00,19
2912.00,1
2911.00,-7
2910.00,8
2909.00,41
2908.00,50
2907.00,33
2906.00,23
2905.00,23
2904.00,23
2903.00,23
2902.00,23
2901.00,23
2900.00,19
2899.00,-3
2898.00,-22
2897.00,-12
2896.00,2
2895.00,6
2894.00,6
2893.00,11
2892.00,19
2891.00,36
2890.00,59
2889.00,73
2888.00,80
2887.00,72
2886.00,43
2885.00,19
2884.00,11
2883.00,7
2882.00,13
2881.00,20
2880.00,28
2879.00,30
2878.00,-10
2877.00,-57
2876.00,-38
2875.00,4
2874.00,24
2873.00,31
2872.00,31
2871.00,24
2870.00,22
2869.00,28
2868.00,33
2867.00,33
2866.00,35
2865.00,48
2864.00,60
2863.00,62
2862.00,62
2861.00,61
2860.00,61
2859.00,56
2858.00,49
2857.00,46
2856.00,46
2855.00,39
2854.00,20
2853.00,10
2852.00,33
2851.00,51
2850.00,21
2849.00,-14
2848.00,-3
2847.00,22
2846.00,38
2845.00,50
2844.00,54
2843.00,47
2842.00,41
2841.00,34
2840.00,29
2839.00,29
2838.00,30
2837.00,40
2836.00,51
2835.00,45
2834.00,33
2833.00,28
2832.00,28
2831.00,30
2830.00,36
2829.00,41
2828.00,47
2827.00,51
2826.00,46
2825.00,42
2824.00,53
2823.00,70
2822.00,76
2821.00,75
2820.00,73
2819.00,67
2818.00,61
2817.00,55
2816.00,50
2815.00,44
2814.00,38
2813.00,33
2812.00,27
2811.00,25
2810.00,25
2809.00,27
2808.00,32
2807.00,36
2806.00,36
2805.00,35
2804.00,35
2803.00,35
2802.00,31
2801.00,26
2800.00,26
2799.00,31
2798.00,33
2797.00,28
2796.00,26
2795.00,38
2794.00,52
2793.00,52
2792.00,46
2791.00,44
2790.00,44
2789.00,40
2788.00,30
2787.00,24
2786.00,32
2785.00,41
2784.00,43
2783.00,42
2782.00,33
2781.00,19
2780.00,14
2779.00,23
2778.00,32
2777.00,41
2776.00,49
2775.00,35
2774.00,16
2773.00,9
2772.00,9
2771.00,12
2770.00,21
2769.00,28
2768.00,29
2767.00,29
2766.00,36
2765.00,45
2764.00,49
2763.00,49
2762.00,47
2761.00,43
2760.00,38
2759.00,33
2758.00,29
2757.00,28
2756.00,27
2755.00,21
2754.00,8
2753.00,-3
2752.00,-8
2751.00,-12
2750.00,-12
2749.00,-12
2748.00,-5
2747.00,8
2746.00,12
2745.00,-0
2744.00,-15
2743.00,-42
2742.00,-69
2741.00,-58
2740.00,-29
2739.00,-6
2738.00,10
2737.00,18
2736.00,-3
2735.00,-27
2734.00,-54
2733.00,-82
2732.00,-70
2731.00,-23
2730.00,12
2729.00,14
2728.00,13
2727.00,7
2726.00,-1
2725.00,0
2724.00,8
2723.00,13
2722.00,13
2721.00,14
2720.00,20
2719.00,27
2718.00,33
2717.00,36
2716.00,39
2715.00,38
2714.00,37
2713.00,31
2712.00,23
2711.00,20
2710.00,20
2709.00,20
2708.00,20
2707.00,19
2706.00,13
2705.00,6
2704.00,14
2703.00,31
2702.00,47
2701.00,58
2700.00,66
2699.00,62
2698.00,54
2697.00,51
2696.00,51
2695.00,50
2694.00,46
2693.00,43
2692.00,42
2691.00,42
2690.00,40
2689.00,36
2688.00,33
2687.00,29
2686.00,26
2685.00,30
2684.00,37
2683.00,40
2682.00,40
2681.00,39
2680.00,36
2679.00,33
2678.00,29
2677.00,26
2676.00,22
2675.00,19
2674.00,16
2673.00,15
2672.00,15
2671.00,17
2670.00,20
2669.00,23
2668.00,26
2667.00,29
2666.00,32
2665.00,35
2664.00,34
2663.00,28
2662.00,23
2661.00,31
2660.00,40
2659.00,42
2658.00,40
2657.00,39
2656.00,40
2655.00,41
2654.00,32
2653.00,19
2652.00,12
2651.00,12
2650.00,12
2649.00,12
2648.00,12
2647.00,14
2646.00,16
2645.00,18
2644.00,15
2643.00,12
2642.00,18
2641.00,27
2640.00,28
2639.00,19
2638.00,12
2637.00,13
2636.00,16
2635.00,19
2634.00,21
2633.00,23
2632.00,23
2631.00,23
2630.00,23
2629.00,23
2628.00,22
2627.00,22
2626.00,22
2625.00,22
2624.00,22
2623.00,23
2622.00,25
2621.00,27
2620.00,23
2619.00,17
2618.00,17
2617.00,22
2616.00,28
2615.00,38
2614.00,49
2613.00,51
2612.00,48
2611.00,43
2610.00,33
2609.00,23
2608.00,19
2607.00,19
2606.00,20
2605.00,22
2604.00,24
2603.00,25
2602.00,25
2601.00,24
2600.00,24
2599.00,24
2598.00,24
2597.00,24
2596.00,27
2595.00,34
2594.00,40
2593.00,36
2592.00,31
2591.00,25
2590.00,18
2589.00,11
2588.00,8
2587.00,5
2586.00,0
2585.00,-7
2584.00,-14
2583.00,-14
2582.00,-14
2581.00,0
2580.00,26
2579.00,46
2578.00,37
2577.00,25
2576.00,16
2575.00,9
2574.00,10
2573.00,45
2572.00,85
2571.00,89
2570.00,70
2569.00,52
2568.00,38
2567.00,24
2566.00,27
2565.00,40
2564.00,51
2563.00,52
2562.00,51
2561.00,47
2560.00,40
2559.00,34
2558.00,29
2557.00,24
2556.00,30
2555.00,42
2554.00,53
2553.00,50
2552.00,46
2551.00,39
2550.00,30
2549.00,22
2548.00,21
2547.00,21
2546.00,22
2545.00,24
2544.00,25
2543.00,25
2542.00,25
2541.00,24
2540.00,22
2539.00,20
2538.00,19
2537.00,19
2536.00,21
2535.00,27
2534.00,33
2533.00,36
2532.00,38
2531.00,39
2530.00,39
2529.00,39
2528.00,38
2527.00,38
2526.00,38
2525.00,38
2524.00,38
2523.00,34
2522.00,28
2521.00,23
2520.00,24
2519.00,25
2518.00,27
2517.00,29
2516.00,31
2515.00,34
2514.00,38
2513.00,40
2512.00,40
2511.00,39
2510.00,35
2509.00,29
2508.00,25
2507.00,26
2506.00,28
2505.00,29
2504.00,28
2503.00,28
2502.00,28
2501.00,28
2500.00,28
2499.00,30
2498.00,32
2497.00,32
2496.00,32
2495.00,31
2494.00,29
2493.00,27
2492.00,23
2491.00,20
2490.00,16
2489.00,12
2488.00,8
2487.00,6
2486.00,6
2485.00,7
2484.00,10
2483.00,13
2482.00,13
2481.00,10
2480.00,7
2479.00,14
2478.00,24
2477.00,32
2476.00,32
2475.00,32
2474.00,29
2473.00,23
2472.00,18
2471.00,16
2470.00,14
2469.00,13
2468.00,15
2467.00,16
2466.00,17
2465.00,17
2464.00,17
2463.00,22
2462.00,27
2461.00,30
2460.00,32
2459.00,33
2458.00,35
2457.00,36
2456.00,37
2455.00,35
2454.00,33
2453.00,28
2452.00,22
2451.00,16
2450.00,14
2449.00,14
2448.00,15
2447.00,16
2446.00,17
2445.00,17
2444.00,15
2443.00,13
2442.00,11
2441.00,10
2440.00,9
2439.00,11
2438.00,12
2437.00,12
2436.00,12
2435.00,12
2434.00,12
2433.00,12
2432.00,9
2431.00,5
2430.00,-0
2429.00,-1
2428.00,-1
2427.00,-2
2426.00,-3
2425.00,-5
2424.00,-6
2423.00,-6
2422.00,-6
2421.00,-6
2420.00,-7
2419.00,-7
2418.00,-7
2417.00,-7
2416.00,-1
2415.00,12
2414.00,26
2413.00,41
2412.00,57
2411.00,66
2410.00,40
2409.00,11
2408.00,-6
2407.00,-2
2406.00,3
2405.00,8
2404.00,14
2403.00,17
2402.00,9
2401.00,-2
2400.00,-9
2399.00,-9
2398.00,-9
2397.00,-1
2396.00,12
2395.00,23
2394.00,23
2393.00,20
2392.00,18
2391.00,17
2390.00,17
2389.00,18
2388.00,21
2387.00,24
2386.00,23
2385.00,22
2384.00,20
2383.00,17
2382.00,14
2381.00,12
2380.00,14
2379.00,15
2378.00,14
2377.00,13
2376.00,11
2375.00,8
2374.00,5
2373.00,4
2372.00,6
2371.00,9
2370.00,12
2369.00,16
2368.00,20
2367.00,21
2366.00,21
2365.00,20
2364.00,19
2363.00,17
2362.00,16
2361.00,16
2360.00,16
2359.00,18
2358.00,22
2357.00,26
2356.00,27
2355.00,29
2354.00,29
2353.00,28
2352.00,26
2351.00,25
2350.00,25
2349.00,25
2348.00,24
2347.00,23
2346.00,21
2345.00,21
2344.00,21
2343.00,19
2342.00,13
2341.00,7
2340.00,2
2339.00,-1
2338.00,-4
2337.00,-4
2336.00,-2
2335.00,1
2334.00,2
2333.00,3
2332.00,4
2331.00,6
2330.00,7
2329.00,8
2328.00,9
2327.00,10
2326.00,11
2325.00,10
2324.00,10
2323.00,9
2322.00,8
2321.00,7
2320.00,3
2319.00,-0
2318.00,-4
2317.00,-4
2316.00,-4
2315.00,-4
2314.00,-1
2313.00,1
2312.00,4
2311.00,9
2310.00,14
2309.00,14
2308.00,13
2307.00,12
2306.00,12
2305.00,14
2304.00,14
2303.00,12
2302.00,9
2301.00,8
2300.00,7
2299.00,7
2298.00,7
2297.00,7
2296.00,7
2295.00,8
2294.00,9
2293.00,10
2292.00,10
2291.00,10
2290.00,10
2289.00,9
2288.00,9
2287.00,9
2286.00,9
2285.00,9
2284.00,8
2283.00,6
2282.00,3
2281.00,1
2280.00,-0
2279.00,-1
2278.00,-0
2277.00,2
2276.00,4
2275.00,9
2274.00,15
2273.00,20
2272.00,20
2271.00,20
2270.00,20
2269.00,20
2268.00,20
2267.00,18
2266.00,15
2265.00,11
2264.00,9
2263.00,8
2262.00,7
2261.00,5
2260.00,4
2259.00,3
2258.00,4
2257.00,4
2256.00,6
2255.00,10
2254.00,14
2253.00,17
2252.00,18
2251.00,18
2250.00,17
2249.00,14
2248.00,12
2247.00,11
2246.00,12
2245.00,13
2244.00,14
2243.00,15
2242.00,16
2241.00,14
2240.00,11
2239.00,8
2238.00,9
2237.00,12
2236.00,15
2235.00,16
2234.00,15
2233.00,15
2232.00,13
2231.00,11
2230.00,8
2229.00,4
2228.00,-1
2227.00,-1
2226.00,11
2225.00,24
2224.00,31
2223.00,27
2222.00,23
2221.00,15
2220.00,5
2219.00,-6
2218.00,-5
2217.00,8
2216.00,21
2215.00,26
2214.00,26
2213.00,25
2212.00,25
2211.00,25
2210.00,25
2209.00,23
2208.00,21
2207.00,19
2206.00,21
2205.00,24
2204.00,27
2203.00,27
2202.00,27
2201.00,27
2200.00,25
2199.00,23
2198.00,20
2197.00,16
2196.00,12
2195.00,8
2194.00,8
2193.00,8
2192.00,7
2191.00,4
2190.00,0
2189.00,-2
2188.00,-2
2187.00,-2
2186.00,-1
2185.00,1
2184.00,3
2183.00,3
2182.00,0
2181.00,-2
2180.00,-2
2179.00,0
2178.00,2
2177.00,5
2176.00,8
2175.00,10
2174.00,14
2173.00,18
2172.00,22
2171.00,21
2170.00,18
2169.00,15
2168.00,15
2167.00,16
2166.00,16
2165.00,18
2164.00,20
2163.00,22
2162.00,22
2161.00,22
2160.00,22
2159.00,20
2158.00,18
2157.00,16
2156.00,15
2155.00,15
2154.00,15
2153.00,13
2152.00,11
2151.00,9
2150.00,8
2149.00,6
2148.00,6
2147.00,6
2146.00,7
2145.00,8
2144.00,8
2143.00,8
2142.00,8
2141.00,7
2140.00,7
2139.00,7
2138.00,7
2137.00,7
2136.00,6
2135.00,6
2134.00,6
2133.00,6
2132.00,5
2131.00,4
2130.00,3
2129.00,2
2128.00,2
2127.00,2
2126.00,4
2125.00,7
2124.00,9
2123.00,9
2122.00,9
2121.00,9
2120.00,9
2119.00,10
2118.00,11
2117.00,11
2116.00,12
2115.00,12
2114.00,11
2113.00,10
2112.00,9
2111.00,9
2110.00,8
2109.00,8
2108.00,8
2107.00,8
2106.00,7
2105.00,7
2104.00,7
2103.00,6
2102.00,6
2101.00,6
2100.00,5
2099.00,5
2098.00,5
2097.00,4
2096.00,3
2095.00,2
2094.00,1
2093.00,-0
2092.00,-1
2091.00,-2
2090.00,-2
2089.00,-0
2088.00,1
2087.00,2
2086.00,2
2085.00,3
2084.00,4
2083.00,5
2082.00,6
2081.00,6
2080.00,6
2079.00,5
2078.00,5
2077.00,5
2076.00,4
2075.00,5
2074.00,8
2073.00,10
2072.00,12
2071.00,11
2070.00,11
2069.00,10
2068.00,9
2067.00,7
2066.00,6
2065.00,9
2064.00,11
2063.00,12
2062.00,7
2061.00,3
2060.00,-1
2059.00,-2
2058.00,-3
2057.00,-4
2056.00,-5
2055.00,-5
2054.00,-5
2053.00,-4
2052.00,-2
2051.00,-0
2050.00,-0
2049.00,-1
2048.00,-1
2047.00,1
2046.00,3
2045.00,5
2044.00,7
2043.00,9
2042.00,10
2041.00,11
2040.00,11
2039.00,12
2038.00,13
2037.00,14
2036.00,16
2035.00,16
2034.00,15
2033.00,14
2032.00,12
2031.00,8
2030.00,3
2029.00,1
2028.00,4
2027.00,8
2026.00,11
2025.00,9
2024.00,6
2023.00,3
2022.00,-1
2021.00,-6
2020.00,-10
2019.00,-8
2018.00,-4
2017.00,0
2016.00,3
2015.00,4
2014.00,5
2013.00,6
2012.00,6
2011.00,6
2010.00,6
2009.00,8
2008.00,9
2007.00,9
2006.00,6
2005.00,2
2004.00,0
2003.00,5
2002.00,9
2001.00,13
2000.00,12
1999.00,10
1998.00,8
1997.00,8
1996.00,8
1995.00,7
1994.00,6
1993.00,4
1992.00,2
1991.00,2
1990.00,4
1989.00,5
1988.00,5
1987.00,4
1986.00,3
1985.00,2
1984.00,0
1983.00,-1
1982.00,-2
1981.00,-3
1980.00,-3
1979.00,-4
1978.00,-3
1977.00,-2
1976.00,-0
1975.00,0
1974.00,-0
1973.00,-0
1972.00,-0
1971.00,-1
1970.00,-1
1969.00,-2
1968.00,-4
1967.00,-6
1966.00,-8
1965.00,-7
1964.00,-7
1963.00,-7
1962.00,-7
1961.00,-7
1960.00,-7
1959.00,-7
1958.00,-7
1957.00,-7
1956.00,-6
1955.00,-4
1954.00,-2
1953.00,-1
1952.00,-1
1951.00,-0
1950.00,0
1949.00,2
1948.00,3
1947.00,4
1946.00,3
1945.00,3
1944.00,2
1943.00,1
1942.00,1
1941.00,0
1940.00,0
1939.00,1
1938.00,2
1937.00,4
1936.00,6
1935.00,8
1934.00,9
1933.00,7
1932.00,4
1931.00,2
1930.00,1
1929.00,1
1928.00,1
1927.00,2
1926.00,3
1925.00,4
1924.00,4
1923.00,4
1922.00,4
1921.00,4
1920.00,3
1919.00,3
1918.00,3
1917.00,2
1916.00,1
1915.00,-0
1914.00,-0
1913.00,-0
1912.00,0
1911.00,0
1910.00,-0
1909.00,-0
1908.00,-0
1907.00,-1
1906.00,-1
1905.00,-1
1904.00,-1
1903.00,-1
1902.00,-1
1901.00,-2
1900.00,-2
1899.00,-3
1898.00,-3
1897.00,-3
1896.00,-3
1895.00,-2
1894.00,-0
1893.00,2
1892.00,3
1891.00,3
1890.00,3
1889.00,3
1888.00,3
1887.00,2
1886.00,2
1885.00,2
1884.00,2
1883.00,3
1882.00,3
1881.00,3
1880.00,2
1879.00,2
1878.00,1
1877.00,-0
1876.00,-1
1875.00,-1
1874.00,-1
1873.00,-1
1872.00,-0
1871.00,-0
1870.00,0
1869.00,1
1868.00,1
1867.00,2
1866.00,3
1865.00,4
1864.00,5
1863.00,6
1862.00,6
1861.00,6
1860.00,6
1859.00,7
1858.00,7
1857.00,7
1856.00,7
1855.00,7
1854.00,6
1853.00,6
1852.00,5
1851.00,5
1850.00,4
1849.00,4
1848.00,5
1847.00,7
1846.00,8
1845.00,7
1844.00,6
1843.00,6
1842.00,5
1841.00,5
1840.00,5
1839.00,6
1838.00,7
1837.00,9
1836.00,10
1835.00,9
1834.00,7
1833.00,6
1832.00,5
1831.00,4
1830.00,3
1829.00,3
1828.00,3
1827.00,4
1826.00,4
1825.00,4
1824.00,3
1823.00,3
1822.00,3
1821.00,2
1820.00,2
1819.00,3
1818.00,6
1817.00,9
1816.00,11
1815.00,12
1814.00,11
1813.00,11
1812.00,9
1811.00,5
1810.00,2
1809.00,-0
1808.00,3
1807.00,5
1806.00,8
1805.00,8
1804.00,7
1803.00,6
1802.00,5
1801.00,5
1800.00,4
1799.00,4
1798.00,5
1797.00,6
1796.00,7
1795.00,7
1794.00,8
1793.00,9
1792.00,9
1791.00,8
1790.00,7
1789.00,6
1788.00,6
1787.00,6
1786.00,6
1785.00,6
1784.00,7
1783.00,7
1782.00,7
1781.00,9
1780.00,10
1779.00,11
1778.00,10
1777.00,8
1776.00,7
1775.00,6
1774.00,6
1773.00,6
1772.00,6
1771.00,8
1770.00,9
1769.00,10
1768.00,9
1767.00,8
1766.00,6
1765.00,5
1764.00,3
1763.00,2
1762.00,1
1761.00,0
1760.00,0
1759.00,0
1758.00,1
1757.00,1
1756.00,2
1755.00,2
1754.00,1
1753.00,1
1752.00,-0
1751.00,0
1750.00,1
1749.00,2
1748.00,3
1747.00,4
1746.00,5
1745.00,7
1744.00,7
1743.00,8
1742.00,8
1741.00,9
1740.00,9
1739.00,8
1738.00,8
1737.00,9
1736.00,9
1735.00,10
1734.00,10
1733.00,11
1732.00,13
1731.00,13
1730.00,13
1729.00,13
1728.00,12
1727.00,12
1726.00,11
1725.00,11
1724.00,10
1723.00,10
1722.00,9
1721.00,9
1720.00,9
1719.00,8
1718.00,8
1717.00,8
1716.00,7
1715.00,7
1714.00,6
1713.00,7
1712.00,9
1711.00,10
1710.00,12
1709.00,13
1708.00,15
1707.00,16
1706.00,16
1705.00,15
1704.00,14
1703.00,14
1702.00,14
1701.00,13
1700.00,13
1699.00,11
1698.00,9
1697.00,7
1696.00,6
1695.00,6
1694.00,6
1693.00,5
1692.00,5
1691.00,5
1690.00,5
1689.00,6
1688.00,7
1687.00,8
1686.00,10
1685.00,11
1684.00,13
1683.00,15
1682.00,16
1681.00,15
1680.00,15
1679.00,14
1678.00,14
1677.00,14
1676.00,14
1675.00,14
1674.00,14
1673.00,14
1672.00,15
1671.00,15
1670.00,15
1669.00,15
1668.00,15
1667.00,15
1666.00,15
1665.00,15
1664.00,16
1663.00,16
1662.00,16
1661.00,16
1660.00,16
1659.00,16
1658.00,15
1657.00,14
1656.00,13
1655.00,11
1654.00,10
1653.00,9
1652.00,8
1651.00,7
1650.00,6
1649.00,6
1648.00,6
1647.00,6
1646.00,7
1645.00,7
1644.00,8
1643.00,8
1642.00,8
1641.00,8
1640.00,8
1639.00,8
1638.00,8
1637.00,8
1636.00,7
1635.00,7
1634.00,6
1633.00,6
1632.00,5
1631.00,4
1630.00,3
1629.00,3
1628.00,2
1627.00,2
1626.00,2
1625.00,2
1624.00,3
1623.00,4
1622.00,4
1621.00,4
1620.00,3
1619.00,4
1618.00,6
1617.00,9
1616.00,12
1615.00,14
1614.00,14
1613.00,15
1612.00,16
1611.00,16
1610.00,16
1609.00,16
1608.00,16
1607.00,16
1606.00,15
1605.00,15
1604.00,16
1603.00,17
1602.00,17
1601.00,18
1600.00,18
1599.00,18
1598.00,17
1597.00,16
1596.00,14
1595.00,11
1594.00,9
1593.00,9
1592.00,8
1591.00,8
1590.00,8
1589.00,11
1588.00,15
1587.00,17
1586.00,14
1585.00,8
1584.00,2
1583.00,-2
1582.00,-0
1581.00,3
1580.00,6
1579.00,8
1578.00,11
1577.00,13
1576.00,16
1575.00,18
1574.00,21
1573.00,23
1572.00,24
1571.00,22
1570.00,20
1569.00,18
1568.00,19
1567.00,21
1566.00,24
1565.00,26
1564.00,26
1563.00,25
1562.00,25
1561.00,24
1560.00,23
1559.00,21
1558.00,19
1557.00,18
1556.00,17
1555.00,16
1554.00,15
1553.00,14
1552.00,13
1551.00,12
1550.00,12
1549.00,11
1548.00,11
1547.00,11
1546.00,11
1545.00,12
1544.00,13
1543.00,13
1542.00,12
1541.00,12
1540.00,11
1539.00,11
1538.00,11
1537.00,11
1536.00,11
1535.00,11
1534.00,11
1533.00,11
1532.00,11
1531.00,11
1530.00,11
1529.00,12
1528.00,12
1527.00,11
1526.00,11
1525.00,11
1524.00,11
1523.00,12
1522.00,12
1521.00,12
1520.00,12
1519.00,12
1518.00,11
1517.00,11
1516.00,11
1515.00,11
1514.00,11
1513.00,11
1512.00,11
1511.00,12
1510.00,12
1509.00,12
1508.00,12
1507.00,11
1506.00,11
1505.00,11
1504.00,11
1503.00,11
1502.00,11
1501.00,10
1500.00,10
1499.00,10
1498.00,12
1497.00,13
1496.00,15
1495.00,15
1494.00,14
1493.00,13
1492.00,12
1491.00,12
1490.00,12
1489.00,12
1488.00,12
1487.00,13
1486.00,14
1485.00,15
1484.00,16
1483.00,16
1482.00,15
1481.00,15
1480.00,15
1479.00,14
1478.00,13
1477.00,12
1476.00,12
1475.00,12
1474.00,12
1473.00,12
1472.00,12
1471.00,11
1470.00,11
1469.00,10
1468.00,10
1467.00,10
1466.00,10
1465.00,10
1464.00,10
1463.00,10
1462.00,11
1461.00,12
1460.00,13
1459.00,14
1458.00,14
1457.00,13
1456.00,11
1455.00,9
1454.00,9
1453.00,10
1452.00,12
1451.00,14
1450.00,14
1449.00,14
1448.00,13
1447.00,13
1446.00,13
1445.00,12
1444.00,12
1443.00,11
1442.00,9
1441.00,8
1440.00,6
1439.00,6
1438.00,7
1437.00,9
1436.00,10
1435.00,11
1434.00,11
1433.00,11
1432.00,10
1431.00,10
1430.00,10
1429.00,10
1428.00,10
1427.00,11
1426.00,11
1425.00,12
1424.00,12
1423.00,13
1422.00,13
1421.00,14
1420.00,14
1419.00,14
1418.00,14
1417.00,14
1416.00,15
1415.00,16
1414.00,17
1413.00,18
1412.00,19
1411.00,20
1410.00,21
1409.00,22
1408.00,22
1407.00,22
1406.00,22
1405.00,21
1404.00,21
1403.00,21
1402.00,21
1401.00,21
1400.00,21
1399.00,20
1398.00,20
1397.00,20
1396.00,19
1395.00,19
1394.00,18
1393.00,17
1392.00,16
1391.00,15
1390.00,14
1389.00,14
1388.00,14
1387.00,14
1386.00,14
1385.00,14
1384.00,14
1383.00,15
1382.00,15
1381.00,14
1380.00,14
1379.00,14
1378.00,13
1377.00,13
1376.00,13
1375.00,12
1374.00,13
1373.00,13
1372.00,13
1371.00,13
1370.00,13
1369.00,13
1368.00,13
1367.00,13
1366.00,15
1365.00,17
1364.00,19
1363.00,20
1362.00,21
1361.00,21
1360.00,21
1359.00,20
1358.00,18
1357.00,16
1356.00,14
1355.00,15
1354.00,16
1353.00,18
1352.00,20
1351.00,20
1350.00,19
1349.00,19
1348.00,18
1347.00,18
1346.00,18
1345.00,18
1344.00,18
1343.00,19
1342.00,20
1341.00,21
1340.00,23
1339.00,25
1338.00,26
1337.00,28
1336.00,29
1335.00,27
1334.00,25
1333.00,23
1332.00,21
1331.00,20
1330.00,19
1329.00,18
1328.00,17
1327.00,17
1326.00,17
1325.00,17
1324.00,19
1323.00,22
1322.00,25
1321.00,27
1320.00,26
1319.00,23
1318.00,20
1317.00,18
1316.00,17
1315.00,18
1314.00,18
1313.00,18
1312.00,19
1311.00,20
1310.00,21
1309.00,21
1308.00,21
1307.00,20
1306.00,19
1305.00,18
1304.00,18
1303.00,18
1302.00,17
1301.00,17
1300.00,17
1299.00,17
1298.00,17
1297.00,17
1296.00,18
1295.00,19
1294.00,21
1293.00,21
1292.00,20
1291.00,19
1290.00,17
1289.00,17
1288.00,18
1287.00,18
1286.00,19
1285.00,19
1284.00,18
1283.00,18
1282.00,17
1281.00,17
1280.00,16
1279.00,15
1278.00,15
1277.00,13
1276.00,12
1275.00,10
1274.00,8
1273.00,7
1272.00,7
1271.00,6
1270.00,6
1269.00,6
1268.00,6
1267.00,6
1266.00,6
1265.00,7
1264.00,7
1263.00,8
1262.00,9
1261.00,9
1260.00,9
1259.00,9
1258.00,9
1257.00,9
1256.00,8
1255.00,8
1254.00,8
1253.00,8
1252.00,9
1251.00,9
1250.00,9
1249.00,9
1248.00,9
1247.00,8
1246.00,8
1245.00,8
1244.00,7
1243.00,6
1242.00,6
1241.00,6
1240.00,5
1239.00,5
1238.00,6
1237.00,6
1236.00,6
1235.00,7
1234.00,7
1233.00,7
1232.00,7
1231.00,6
1230.00,6
1229.00,6
1228.00,7
1227.00,7
1226.00,7
1225.00,7
1224.00,7
1223.00,7
1222.00,7
1221.00,7
1220.00,7
1219.00,7
1218.00,7
1217.00,7
1216.00,7
1215.00,7
1214.00,7
1213.00,7
1212.00,7
1211.00,7
1210.00,7
1209.00,7
1208.00,7
1207.00,7
1206.00,6
1205.00,6
1204.00,6
1203.00,6
1202.00,6
1201.00,6
1200.00,5
1199.00,5
1198.00,4
1197.00,4
1196.00,4
1195.00,4
1194.00,4
1193.00,4
1192.00,4
1191.00,4
1190.00,4
1189.00,4
1188.00,4
1187.00,4
1186.00,4
1185.00,5
1184.00,5
1183.00,5
1182.00,5
1181.00,7
1180.00,8
1179.00,10
1178.00,12
1177.00,12
1176.00,11
1175.00,11
1174.00,10
1173.00,9
1172.00,8
1171.00,7
1170.00,6
1169.00,5
1168.00,5
1167.00,5
1166.00,4
1165.00,4
1164.00,5
1163.00,5
1162.00,5
1161.00,5
1160.00,5
1159.00,5
1158.00,5
1157.00,5
1156.00,5
1155.00,5
1154.00,5
1153.00,4
1152.00,2
1151.00,0
1150.00,-1
1149.00,-3
1148.00,-3
1147.00,-3
1146.00,-3
1145.00,-3
1144.00,-1
1143.00,1
1142.00,2
1141.00,4
1140.00,4
1139.00,4
1138.00,4
1137.00,4
1136.00,5
1135.00,5
1134.00,5
1133.00,6
1132.00,6
1131.00,6
1130.00,6
1129.00,6
1128.00,6
1127.00,6
1126.00,7
1125.00,7
1124.00,7
1123.00,7
1122.00,7
1121.00,7
1120.00,7
1119.00,6
1118.00,5
1117.00,4
1116.00,4
1115.00,4
1114.00,3
1113.00,3
1112.00,4
1111.00,4
1110.00,5
1109.00,5
1108.00,6
1107.00,5
1106.00,4
1105.00,3
1104.00,3
1103.00,3
1102.00,4
1101.00,5
1100.00,5
1099.00,5
1098.00,5
1097.00,5
1096.00,5
1095.00,5
1094.00,5
1093.00,5
1092.00,5
1091.00,4
1090.00,3
1089.00,2
1088.00,1
1087.00,1
1086.00,2
1085.00,3
1084.00,4
1083.00,5
1082.00,3
1081.00,2
1080.00,1
1079.00,0
1078.00,-1
1077.00,-2
1076.00,-3
1075.00,-4
1074.00,-3
1073.00,-2
1072.00,-1
1071.00,-0
1070.00,0
1069.00,-0
1068.00,-0
1067.00,-1
1066.00,-1
1065.00,-2
1064.00,-3
1063.00,-4
1062.00,-4
1061.00,-3
1060.00,-2
1059.00,-2
1058.00,-1
1057.00,-0
1056.00,1
1055.00,1
1054.00,2
1053.00,2
1052.00,2
1051.00,2
1050.00,2
1049.00,1
1048.00,-1
1047.00,-2
1046.00,-4
1045.00,-4
1044.00,-4
1043.00,-4
1042.00,-4
1041.00,-4
1040.00,-5
1039.00,-6
1038.00,-6
1037.00,-7
1036.00,-7
1035.00,-7
1034.00,-7
1033.00,-7
1032.00,-7
1031.00,-7
1030.00,-7
1029.00,-6
1028.00,-6
1027.00,-5
1026.00,-4
1025.00,-4
1024.00,-4
1023.00,-5
1022.00,-5
1021.00,-6
1020.00,-6
1019.00,-6
1018.00,-6
1017.00,-6
1016.00,-6
1015.00,-5
1014.00,-3
1013.00,-2
1012.00,-1
1011.00,-1
1010.00,-1
1009.00,-1
1008.00,-1
1007.00,-1
1006.00,-0
1005.00,0
1004.00,1
1003.00,1
1002.00,1
1001.00,1
1000.00,1
999.00,1
998.00,1
997.00,1
996.00,1
995.00,1
994.00,0
993.00,0
992.00,0
991.00,0
990.00,0
989.00,0
988.00,0
987.00,0
986.00,1
985.00,1
984.00,2
983.00,2
982.00,3
981.00,3
980.00,4
979.00,5
978.00,5
977.00,6
976.00,6
975.00,6
974.00,6
973.00,7
972.00,6
971.00,6
970.00,6
969.00,6
968.00,5
967.00,5
966.00,4
965.00,3
964.00,1
963.00,-0
962.00,-2
961.00,-4
960.00,-4
959.00,-4
958.00,-4
957.00,-5
956.00,-5
955.00,-5
954.00,-5
953.00,-5
952.00,-4
951.00,-2
950.00,-0
949.00,2
948.00,3
947.00,4
946.00,4
945.00,4
944.00,4
943.00,4
942.00,4
941.00,4
940.00,4
939.00,3
938.00,4
937.00,4
936.00,4
935.00,4
934.00,4
933.00,4
932.00,4
931.00,3
930.00,3
929.00,2
928.00,1
927.00,-0
926.00,-1
925.00,-0
924.00,-0
923.00,0
922.00,1
921.00,1
920.00,1
919.00,2
918.00,2
917.00,2
916.00,2
915.00,2
914.00,2
913.00,1
912.00,1
911.00,0
910.00,0
909.00,-0
908.00,-0
907.00,0
906.00,0
905.00,1
904.00,1
903.00,1
902.00,0
901.00,0
900.00,0
899.00,0
898.00,0
897.00,0
896.00,0
895.00,0
894.00,1
893.00,1
892.00,1
891.00,2
890.00,2
889.00,3
888.00,4
887.00,4
886.00,4
885.00,4
884.00,5
883.00,5
882.00,5
881.00,5
880.00,4
879.00,4
878.00,4
877.00,4
876.00,4
875.00,4
874.00,4
873.00,6
872.00,7
871.00,9
870.00,11
869.00,11
868.00,12
867.00,12
866.00,12
865.00,12
864.00,12
863.00,12
862.00,11
861.00,11
860.00,9
859.00,7
858.00,5
857.00,3
856.00,2
855.00,3
854.00,3
853.00,4
852.00,4
851.00,4
850.00,4
849.00,4
848.00,4
847.00,4
846.00,4
845.00,4
844.00,4
843.00,4
842.00,4
841.00,3
840.00,3
839.00,3
838.00,3
837.00,4
836.00,5
835.00,5
834.00,5
833.00,5
832.00,5
831.00,5
830.00,5
829.00,5
828.00,5
827.00,5
826.00,5
825.00,5
824.00,5
823.00,5
822.00,5
821.00,5
820.00,5
819.00,5
818.00,5
817.00,5
816.00,5
815.00,5
814.00,5
813.00,6
812.00,6
811.00,6
810.00,6
809.00,6
808.00,6
807.00,6
806.00,5
805.00,4
804.00,3
803.00,3
802.00,4
801.00,4
800.00,5
799.00,5
798.00,6
797.00,5
796.00,5
795.00,5
794.00,5
793.00,5
792.00,5
791.00,5
790.00,4
789.00,5
788.00,5
787.00,5
786.00,5
785.00,5
784.00,5
783.00,5
782.00,5
781.00,5
780.00,6
779.00,7
778.00,7
777.00,8
776.00,9
775.00,9
774.00,10
773.00,10
772.00,11
771.00,10
770.00,10
769.00,9
768.00,9
767.00,8
766.00,8
765.00,8
764.00,7
763.00,7
762.00,7
761.00,7
760.00,7
759.00,7
758.00,7
757.00,6
756.00,6
755.00,6
754.00,6
753.00,6
752.00,6
751.00,6
750.00,6
749.00,6
748.00,5
747.00,5
746.00,4
745.00,4
744.00,4
743.00,4
742.00,4
741.00,4
740.00,4
739.00,4
738.00,5
737.00,6
736.00,6
735.00,6
734.00,7
733.00,7
732.00,7
731.00,7
730.00,7
729.00,7
728.00,7
727.00,7
726.00,7
725.00,7
724.00,7
723.00,7
722.00,7
721.00,7
720.00,7
719.00,7
718.00,7
717.00,8
716.00,9
715.00,10
714.00,12
713.00,12
712.00,11
711.00,10
710.00,8
709.00,7
708.00,7
707.00,8
706.00,9
705.00,11
704.00,12
703.00,13
702.00,13
701.00,13
700.00,14
699.00,14
698.00,14
697.00,14
696.00,13
695.00,13
694.00,13
693.00,12
692.00,11
691.00,10
690.00,9
689.00,9
688.00,9
687.00,9
686.00,8
685.00,8
684.00,8
683.00,7
682.00,7
681.00,6
680.00,6
679.00,6
678.00,6
677.00,6
676.00,6
675.00,6
674.00,6
673.00,6
672.00,6
671.00,6
670.00,6
669.00,6
668.00,6
667.00,6
666.00,6
665.00,6
664.00,6
663.00,6
662.00,6
661.00,6
660.00,6
659.00,6
658.00,6
657.00,6
656.00,6
655.00,6
654.00,6
653.00,6
652.00,7
651.00,8
650.00,9
649.00,9
648.00,10
647.00,9
646.00,9
645.00,9
644.00,9
643.00,9
642.00,9
641.00,9
640.00,9
639.00,9
638.00,9
637.00,9
636.00,9
635.00,9
634.00,9
633.00,9
632.00,10
631.00,10
630.00,10
629.00,10
628.00,9
627.00,8
626.00,8
625.00,7
624.00,7
623.00,7
622.00,7
621.00,7
620.00,7
619.00,7
618.00,7
617.00,7
616.00,7
615.00,8
614.00,10
613.00,11
612.00,12
611.00,13
610.00,13
609.00,13
608.00,13
607.00,13
606.00,12
605.00,12
604.00,12
603.00,12
602.00,12
601.00,12
600.00,12
599.00,12
598.00,13
597.00,13
596.00,12
595.00,12
594.00,12
593.00,12
592.00,12
591.00,11
590.00,11
589.00,10
588.00,10
587.00,9
586.00,9
585.00,9
584.00,9
583.00,9
582.00,9
581.00,10
580.00,10
579.00,11
578.00,11
577.00,10
576.00,10
575.00,10
574.00,9
573.00,9
572.00,9
571.00,9
570.00,9
569.00,9
568.00,9
567.00,9
566.00,10
565.00,10
564.00,10
563.00,10
562.00,10
561.00,11
560.00,11
559.00,11
558.00,10
557.00,10
556.00,9
555.00,9
554.00,9
553.00,9
552.00,8
551.00,8
550.00,8
549.00,9
548.00,9
547.00,10
546.00,10
545.00,10
544.00,10
543.00,9
542.00,8
541.00,7
540.00,7
539.00,7
538.00,7
537.00,7
536.00,7
535.00,7
534.00,7
533.00,7
532.00,7
531.00,7
530.00,8
529.00,10
528.00,11
527.00,12
526.00,13
525.00,12
524.00,12
523.00,11
522.00,10
521.00,10
520.00,11
519.00,11
518.00,12
517.00,12
516.00,12
515.00,12
514.00,11
513.00,11
512.00,11
511.00,11
510.00,11
509.00,11
508.00,12
507.00,12
506.00,12
505.00,13
504.00,13
503.00,14
502.00,14
501.00,14
500.00,14
499.00,14
498.00,14
497.00,14
496.00,13
495.00,13
494.00,13
493.00,13
492.00,13
491.00,13
490.00,13
489.00,13
488.00,13
487.00,12
486.00,11
485.00,10
484.00,9
483.00,8
482.00,7
481.00,7
480.00,7
479.00,7
478.00,7
477.00,7
476.00,7
475.00,7
474.00,8
473.00,8
472.00,8
471.00,7
470.00,7
469.00,7
468.00,8
467.00,8
466.00,9
465.00,10
464.00,11
463.00,11
462.00,11
461.00,11
460.00,11
459.00,11
458.00,11
457.00,11
456.00,11
455.00,11
454.00,11
453.00,11
452.00,11
451.00,11
450.00,11
449.00,11
448.00,11
447.00,10
446.00,10
445.00,10
444.00,9
443.00,9
442.00,9
441.00,9
440.00,9
439.00,9
438.00,9
437.00,10
436.00,10
435.00,10
434.00,10
433.00,11
432.00,11
431.00,11
430.00,11
429.00,11
428.00,10
427.00,10
426.00,10
425.00,10
424.00,10
423.00,10
422.00,10
421.00,10
420.00,11
419.00,10
418.00,10
417.00,9
416.00,8
415.00,8
414.00,8
413.00,8
412.00,8
411.00,8
410.00,8
409.00,8
408.00,9
407.00,10
406.00,10
405.00,11
404.00,11
403.00,11
402.00,11
401.00,12
400.00,12
399.00,11
398.00,11
397.00,11
396.00,11
395.00,10
394.00,10
393.00,10
392.00,11
391.00,11
390.00,10
389.00,10
388.00,10
387.00,10
386.00,10
385.00,9
384.00,9
383.00,9
382.00,9
381.00,9
380.00,8
379.00,8
378.00,8
377.00,8
376.00,8
375.00,8
374.00,8
373.00,8
372.00,9
371.00,9
370.00,10
369.00,11
368.00,13
367.00,14
366.00,16
365.00,16
364.00,16
363.00,16
362.00,16
361.00,15
360.00,15
359.00,15
358.00,15
357.00,15
356.00,14
355.00,13
354.00,11
353.00,9
352.00,7
351.00,5
350.00,5
349.00,5
348.00,5
347.00,5
346.00,5
345.00,5
344.00,5
343.00,5
342.00,5
341.00,4
340.00,5
339.00,5
338.00,5
337.00,5
336.00,6
335.00,6
334.00,7
333.00,7
332.00,7
331.00,8
330.00,8
329.00,8
328.00,8
327.00,8
326.00,8
325.00,8
324.00,8
323.00,8
322.00,8
321.00,7
320.00,7
319.00,7
318.00,7
317.00,7
316.00,7
315.00,6
314.00,5
313.00,5
312.00,4
311.00,4
310.00,3
309.00,3
308.00,3
307.00,3
306.00,3
305.00,4
304.00,4
303.00,4
302.00,4
301.00,4
300.00,4
299.00,5
298.00,5
297.00,5
296.00,5
295.00,5
294.00,5
293.00,5
292.00,5
291.00,5
290.00,5
289.00,5
288.00,5
287.00,5
286.00,5
285.00,5
284.00,4
283.00,4
282.00,4
281.00,3
280.00,3
279.00,4
278.00,4
277.00,4
276.00,4
275.00,4
274.00,3
273.00,3
272.00,3
271.00,2
270.00,2
269.00,2
268.00,3
267.00,3
266.00,3
265.00,3
264.00,3
263.00,3
262.00,3
261.00,3
260.00,3
259.00,3
258.00,3
257.00,3
256.00,3
255.00,3
254.00,3
253.00,3
252.00,3
251.00,3
250.00,3
249.00,3
248.00,3
247.00,4
246.00,4
245.00,4
244.00,4
243.00,4
242.00,4
241.00,4
240.00,4
239.00,5
238.00,6
237.00,6
236.00,7
235.00,8
234.00,7
233.00,7
232.00,7
231.00,7
230.00,7
229.00,6
228.00,7
227.00,7
226.00,7
225.00,6
224.00,6
223.00,6
222.00,6
221.00,5
220.00,5
219.00,5
218.00,5
217.00,5
216.00,5
215.00,5
214.00,5
213.00,5
212.00,4
211.00,4
210.00,4
209.00,4
208.00,4
207.00,4
206.00,4
205.00,4
204.00,4
203.00,4
202.00,5
201.00,5
200.00,5
199.00,5
198.00,5
197.00,4
196.00,4
195.00,4
194.00,4
193.00,4
192.00,4
191.00,4
190.00,4
189.00,4
188.00,4
187.00,4
186.00,4
185.00,4
184.00,4
183.00,4
182.00,4
181.00,4
180.00,5
179.00,5
178.00,4
177.00,4
176.00,4
175.00,4
174.00,3
173.00,3
172.00,3
171.00,3
170.00,3
169.00,3
168.00,3
167.00,3
166.00,3
165.00,3
164.00,2
163.00,2
162.00,2
161.00,3
160.00,3
159.00,3
158.00,3
157.00,3
156.00,2
155.00,2
154.00,1
153.00,1
152.00,1
151.00,1
150.00,1
149.00,1
148.00,1
147.00,0
146.00,-0
145.00,-1
144.00,-1
143.00,-2
142.00,-2
141.00,-2
140.00,-2
139.00,-1
138.00,-1
137.00,-1
136.00,-1
135.00,-1
134.00,-1
133.00,-1
132.00,-1
131.00,-1
130.00,-1
129.00,-1
128.00,-2
127.00,-2
126.00,-1
125.00,-1
124.00,-1
123.00,-1
122.00,-0
121.00,-0
120.00,-0
119.00,-0
118.00,0
117.00,0
116.00,0
115.00,0
114.00,0
113.00,0
112.00,0
111.00,-0
110.00,-0
109.00,-0
108.00,-0
107.00,-0
106.00,-0
105.00,-0
104.00,-1
103.00,-1
102.00,-1
101.00,-1
100.00,-1
