Created as New Dataset,
Raman Shift / cm-1,INT
3200.00,6
3199.00,14
3198.00,60
3197.00,71
3196.00,53
3195.00,45
3194.00,38
3193.00,23
3192.00,-10
3191.00,-68
3190.00,-93
3189.00,-98
3188.00,-72
3187.00,-30
3186.00,35
3185.00,45
3184.00,8
3183.00,9
3182.00,43
3181.00,183
3180.00,321
3179.00,403
3178.00,435
3177.00,425
3176.00,381
3175.00,334
3174.00,323
3173.00,316
3172.00,309
3171.00,316
3170.00,331
3169.00,326
3168.00,334
3167.00,455
3166.00,546
3165.00,536
3164.00,439
3163.00,279
3162.00,191
3161.00,130
3160.00,63
3159.00,10
3158.00,-7
3157.00,-20
3156.00,-31
3155.00,-18
3154.00,11
3153.00,86
3152.00,125
3151.00,-3
3150.00,-298
3149.00,-861
3148.00,-723
3147.00,-53
3146.00,157
3145.00,218
3144.00,349
3143.00,414
3142.00,265
3141.00,213
3140.00,319
3139.00,305
3138.00,219
3137.00,126
3136.00,44
3135.00,30
3134.00,33
3133.00,54
3132.00,83
3131.00,122
3130.00,134
3129.00,132
3128.00,191
3127.00,257
3126.00,252
3125.00,236
3124.00,224
3123.00,242
3122.00,311
3121.00,311
3120.00,251
3119.00,226
3118.00,214
3117.00,187
3116.00,160
3115.00,151
3114.00,142
3113.00,128
3112.00,131
3111.00,161
3110.00,195
3109.00,231
3108.00,223
3107.00,199
3106.00,177
3105.00,151
3104.00,96
3103.00,50
3102.00,39
3101.00,83
3100.00,211
3099.00,207
3098.00,85
3097.00,50
3096.00,61
3095.00,61
3094.00,74
3093.00,197
3092.00,309
3091.00,293
3090.00,257
3089.00,205
3088.00,160
3087.00,128
3086.00,154
3085.00,228
3084.00,198
3083.00,117
3082.00,151
3081.00,207
3080.00,127
3079.00,36
3078.00,49
3077.00,52
3076.00,-21
3075.00,-59
3074.00,-11
3073.00,24
3072.00,38
3071.00,61
3070.00,92
3069.00,120
3068.00,143
3067.00,130
3066.00,105
3065.00,121
3064.00,142
3063.00,109
3062.00,81
3061.00,125
3060.00,164
3059.00,158
3058.00,150
3057.00,147
3056.00,190
3055.00,315
3054.00,332
3053.00,221
3052.00,175
3051.00,189
3050.00,249
3049.00,335
3048.00,354
3047.00,344
3046.00,335
3045.00,326
3044.00,320
3043.00,315
3042.00,320
3041.00,331
3040.00,365
3039.00,391
3038.00,366
3037.00,331
3036.00,280
3035.00,228
3034.00,173
3033.00,108
3032.00,26
3031.00,-27
3030.00,-35
3029.00,-28
3028.00,-2
3027.00,4
3026.00,-7
3025.00,47
3024.00,159
3023.00,342
3022.00,563
3021.00,553
3020.00,418
3019.00,366
3018.00,359
3017.00,453
3016.00,574
3015.00,532
3014.00,437
3013.00,376
3012.00,322
3011.00,249
3010.00,182
3009.00,202
3008.00,236
3007.00,236
3006.00,228
3005.00,218
3004.00,207
3003.00,187
3002.00,178
3001.00,227
3000.00,281
2999.00,326
2998.00,356
2997.00,328
2996.00,302
2995.00,314
2994.00,331
2993.00,347
2992.00,351
2991.00,306
2990.00,260
2989.00,225
2988.00,196
2987.00,187
2986.00,181
2985.00,178
2984.00,174
2983.00,167
2982.00,161
2981.00,157
2980.00,161
2979.00,187
2978.00,209
2977.00,206
2976.00,210
2975.00,260
2974.00,302
2973.00,300
2972.00,294
2971.00,295
2970.00,295
2969.00,287
2968.00,285
2967.00,318
2966.00,341
2965.00,299
2964.00,266
2963.00,312
2962.00,361
2961.00,366
2960.00,355
2959.00,277
2958.00,194
2957.00,172
2956.00,170
2955.00,220
2954.00,277
2953.00,284
2952.00,277
2951.00,258
2950.00,240
2949.00,266
2948.00,309
2947.00,343
2946.00,373
2945.00,376
2944.00,369
2943.00,363
2942.00,359
2941.00,358
2940.00,360
2939.00,353
2938.00,339
2937.00,339
2936.00,353
2935.00,346
2934.00,315
2933.00,294
2932.00,285
2931.00,280
2930.00,281
2929.00,293
2928.00,329
2927.00,355
2926.00,350
2925.00,343
2924.00,342
2923.00,342
2922.00,339
2921.00,335
2920.00,326
2919.00,316
2918.00,308
2917.00,301
2916.00,275
2915.00,244
2914.00,196
2913.00,142
2912.00,119
2911.00,114
2910.00,132
2909.00,168
2908.00,203
2907.00,239
2906.00,257
2905.00,249
2904.00,250
2903.00,275
2902.00,286
2901.00,249
2900.00,218
2899.00,234
2898.00,245
2897.00,196
2896.00,145
2895.00,202
2894.00,284
2893.00,317
2892.00,330
2891.00,337
2890.00,340
2889.00,304
2888.00,233
2887.00,221
2886.00,296
2885.00,338
2884.00,301
2883.00,265
2882.00,242
2881.00,220
2880.00,192
2879.00,167
2878.00,175
2877.00,190
2876.00,211
2875.00,233
2874.00,243
2873.00,245
2872.00,240
2871.00,228
2870.00,219
2869.00,218
2868.00,213
2867.00,199
2866.00,188
2865.00,188
2864.00,189
2863.00,191
2862.00,194
2861.00,189
2860.00,183
2859.00,186
2858.00,194
2857.00,238
2856.00,320
2855.00,374
2854.00,378
2853.00,375
2852.00,356
2851.00,333
2850.00,297
2849.00,259
2848.00,241
2847.00,230
2846.00,228
2845.00,232
2844.00,238
2843.00,245
2842.00,264
2841.00,306
2840.00,338
2839.00,333
2838.00,324
2837.00,313
2836.00,302
2835.00,285
2834.00,267
2833.00,256
2832.00,251
2831.00,248
2830.00,250
2829.00,248
2828.00,236
2827.00,223
2826.00,209
2825.00,197
2824.00,206
2823.00,219
2822.00,216
2821.00,202
2820.00,188
2819.00,174
2818.00,166
2817.00,172
2816.00,177
2815.00,176
2814.00,177
2813.00,219
2812.00,276
2811.00,306
2810.00,318
2809.00,334
2808.00,354
2807.00,367
2806.00,358
2805.00,347
2804.00,339
2803.00,332
2802.00,311
2801.00,284
2800.00,270
2799.00,268
2798.00,262
2797.00,244
2796.00,231
2795.00,241
2794.00,253
2793.00,248
2792.00,238
2791.00,229
2790.00,223
2789.00,214
2788.00,201
2787.00,195
2786.00,218
2785.00,240
2784.00,219
2783.00,187
2782.00,186
2781.00,207
2780.00,230
2779.00,257
2778.00,279
2777.00,283
2776.00,284
2775.00,266
2774.00,244
2773.00,228
2772.00,217
2771.00,212
2770.00,220
2769.00,225
2768.00,219
2767.00,213
2766.00,218
2765.00,225
2764.00,228
2763.00,227
2762.00,223
2761.00,213
2760.00,202
2759.00,189
2758.00,175
2757.00,175
2756.00,181
2755.00,190
2754.00,204
2753.00,213
2752.00,208
2751.00,202
2750.00,195
2749.00,188
2748.00,175
2747.00,159
2746.00,157
2745.00,183
2744.00,200
2743.00,165
2742.00,123
2741.00,108
2740.00,105
2739.00,118
2738.00,152
2737.00,180
2736.00,186
2735.00,187
2734.00,146
2733.00,92
2732.00,78
2731.00,101
2730.00,120
2729.00,131
2728.00,140
2727.00,137
2726.00,131
2725.00,148
2724.00,181
2723.00,207
2722.00,211
2721.00,214
2720.00,216
2719.00,217
2718.00,216
2717.00,211
2716.00,206
2715.00,198
2714.00,189
2713.00,177
2712.00,164
2711.00,182
2710.00,221
2709.00,246
2708.00,243
2707.00,238
2706.00,232
2705.00,227
2704.00,224
2703.00,222
2702.00,223
2701.00,230
2700.00,237
2699.00,252
2698.00,267
2697.00,274
2696.00,276
2695.00,274
2694.00,263
2693.00,252
2692.00,238
2691.00,222
2690.00,201
2689.00,174
2688.00,150
2687.00,135
2686.00,121
2685.00,111
2684.00,102
2683.00,97
2682.00,95
2681.00,99
2680.00,134
2679.00,169
2678.00,177
2677.00,170
2676.00,162
2675.00,153
2674.00,146
2673.00,154
2672.00,164
2671.00,166
2670.00,160
2669.00,152
2668.00,140
2667.00,128
2666.00,136
2665.00,151
2664.00,159
2663.00,156
2662.00,154
2661.00,159
2660.00,166
2659.00,211
2658.00,280
2657.00,326
2656.00,309
2655.00,290
2654.00,262
2653.00,230
2652.00,211
2651.00,207
2650.00,203
2649.00,195
2648.00,187
2647.00,196
2646.00,215
2645.00,221
2644.00,195
2643.00,170
2642.00,183
2641.00,209
2640.00,221
2639.00,215
2638.00,210
2637.00,213
2636.00,217
2635.00,216
2634.00,213
2633.00,212
2632.00,223
2631.00,234
2630.00,232
2629.00,224
2628.00,215
2627.00,205
2626.00,196
2625.00,193
2624.00,192
2623.00,187
2622.00,178
2621.00,168
2620.00,151
2619.00,134
2618.00,113
2617.00,89
2616.00,72
2615.00,86
2614.00,103
2613.00,104
2612.00,95
2611.00,91
2610.00,104
2609.00,118
2608.00,141
2607.00,168
2606.00,186
2605.00,185
2604.00,184
2603.00,179
2602.00,172
2601.00,173
2600.00,186
2599.00,197
2598.00,194
2597.00,188
2596.00,183
2595.00,180
2594.00,175
2593.00,163
2592.00,151
2591.00,143
2590.00,142
2589.00,148
2588.00,190
2587.00,236
2586.00,251
2585.00,237
2584.00,224
2583.00,216
2582.00,208
2581.00,208
2580.00,215
2579.00,216
2578.00,198
2577.00,178
2576.00,152
2575.00,122
2574.00,105
2573.00,139
2572.00,178
2571.00,194
2570.00,196
2569.00,195
2568.00,179
2567.00,161
2566.00,154
2565.00,154
2564.00,153
2563.00,149
2562.00,146
2561.00,140
2560.00,134
2559.00,134
2558.00,163
2557.00,196
2556.00,219
2555.00,233
2554.00,244
2553.00,240
2552.00,234
2551.00,228
2550.00,223
2549.00,220
2548.00,232
2547.00,247
2546.00,253
2545.00,249
2544.00,242
2543.00,214
2542.00,182
2541.00,160
2540.00,153
2539.00,148
2538.00,156
2537.00,167
2536.00,169
2535.00,156
2534.00,144
2533.00,141
2532.00,141
2531.00,142
2530.00,144
2529.00,147
2528.00,159
2527.00,177
2526.00,189
2525.00,185
2524.00,179
2523.00,201
2522.00,240
2521.00,266
2520.00,230
2519.00,188
2518.00,161
2517.00,148
2516.00,136
2515.00,135
2514.00,136
2513.00,148
2512.00,176
2511.00,202
2510.00,202
2509.00,192
2508.00,188
2507.00,195
2506.00,203
2505.00,201
2504.00,192
2503.00,185
2502.00,181
2501.00,178
2500.00,174
2499.00,169
2498.00,165
2497.00,162
2496.00,160
2495.00,160
2494.00,167
2493.00,173
2492.00,172
2491.00,169
2490.00,164
2489.00,155
2488.00,146
2487.00,140
2486.00,136
2485.00,132
2484.00,130
2483.00,128
2482.00,123
2481.00,113
2480.00,105
2479.00,118
2478.00,138
2477.00,152
2476.00,149
2475.00,145
2474.00,139
2473.00,130
2472.00,123
2471.00,123
2470.00,125
2469.00,122
2468.00,111
2467.00,101
2466.00,101
2465.00,106
2464.00,109
2463.00,106
2462.00,101
2461.00,102
2460.00,108
2459.00,113
2458.00,120
2457.00,126
2456.00,129
2455.00,122
2454.00,115
2453.00,112
2452.00,112
2451.00,111
2450.00,108
2449.00,104
2448.00,109
2447.00,130
2446.00,151
2445.00,154
2444.00,147
2443.00,142
2442.00,147
2441.00,154
2440.00,156
2439.00,152
2438.00,148
2437.00,144
2436.00,141
2435.00,136
2434.00,131
2433.00,125
2432.00,118
2431.00,108
2430.00,99
2429.00,94
2428.00,90
2427.00,88
2426.00,89
2425.00,91
2424.00,90
2423.00,85
2422.00,80
2421.00,77
2420.00,75
2419.00,74
2418.00,77
2417.00,81
2416.00,82
2415.00,80
2414.00,78
2413.00,85
2412.00,98
2411.00,108
2410.00,110
2409.00,111
2408.00,100
2407.00,71
2406.00,43
2405.00,37
2404.00,41
2403.00,43
2402.00,28
2401.00,9
2400.00,-3
2399.00,-3
2398.00,-3
2397.00,1
2396.00,6
2395.00,13
2394.00,29
2393.00,47
2392.00,60
2391.00,56
2390.00,50
2389.00,54
2388.00,68
2387.00,81
2386.00,85
2385.00,86
2384.00,89
2383.00,102
2382.00,116
2381.00,127
2380.00,136
2379.00,144
2378.00,144
2377.00,139
2376.00,132
2375.00,113
2374.00,91
2373.00,74
2372.00,70
2371.00,67
2370.00,62
2369.00,55
2368.00,48
2367.00,44
2366.00,42
2365.00,40
2364.00,39
2363.00,38
2362.00,40
2361.00,46
2360.00,52
2359.00,53
2358.00,49
2357.00,45
2356.00,41
2355.00,37
2354.00,33
2353.00,25
2352.00,17
2351.00,9
2350.00,2
2349.00,-4
2348.00,-8
2347.00,-9
2346.00,-11
2345.00,-9
2344.00,-7
2343.00,-5
2342.00,-3
2341.00,-1
2340.00,-0
2339.00,-2
2338.00,-5
2337.00,-3
2336.00,2
2335.00,7
2334.00,16
2333.00,27
2332.00,36
2331.00,35
2330.00,33
2329.00,26
2328.00,7
2327.00,-12
2326.00,-15
2325.00,3
2324.00,21
2323.00,29
2322.00,31
2321.00,33
2320.00,31
2319.00,28
2318.00,25
2317.00,23
2316.00,20
2315.00,23
2314.00,34
2313.00,45
2312.00,51
2311.00,50
2310.00,49
2309.00,41
2308.00,29
2307.00,17
2306.00,-1
2305.00,-21
2304.00,-34
2303.00,-22
2302.00,-8
2301.00,2
2300.00,2
2299.00,0
2298.00,2
2297.00,7
2296.00,11
2295.00,11
2294.00,9
2293.00,7
2292.00,3
2291.00,0
2290.00,-5
2289.00,-26
2288.00,-50
2287.00,-67
2286.00,-70
2285.00,-71
2284.00,-74
2283.00,-80
2282.00,-87
2281.00,-74
2280.00,-47
2279.00,-19
2278.00,-4
2277.00,5
2276.00,15
2275.00,23
2274.00,31
2273.00,38
2272.00,36
2271.00,33
2270.00,29
2269.00,26
2268.00,23
2267.00,20
2266.00,18
2265.00,16
2264.00,7
2263.00,-10
2262.00,-26
2261.00,-32
2260.00,-32
2259.00,-32
2258.00,-28
2257.00,-22
2256.00,-17
2255.00,-20
2254.00,-24
2253.00,-28
2252.00,-30
2251.00,-32
2250.00,-27
2249.00,-5
2248.00,17
2247.00,32
2246.00,31
2245.00,30
2244.00,26
2243.00,19
2242.00,13
2241.00,4
2240.00,-5
2239.00,-14
2238.00,-11
2237.00,-4
2236.00,3
2235.00,1
2234.00,-3
2233.00,-8
2232.00,-20
2231.00,-32
2230.00,-40
2229.00,-31
2228.00,-19
2227.00,-9
2226.00,-6
2225.00,-3
2224.00,-1
2223.00,-1
2222.00,-1
2221.00,-14
2220.00,-45
2219.00,-76
2218.00,-77
2217.00,-49
2216.00,-22
2215.00,-14
2214.00,-19
2213.00,-25
2212.00,-24
2211.00,-22
2210.00,-19
2209.00,-19
2208.00,-20
2207.00,-21
2206.00,-22
2205.00,-22
2204.00,-22
2203.00,-24
2202.00,-25
2201.00,-26
2200.00,-24
2199.00,-21
2198.00,-18
2197.00,-15
2196.00,-11
2195.00,-9
2194.00,-11
2193.00,-14
2192.00,-16
2191.00,-18
2190.00,-21
2189.00,-22
2188.00,-23
2187.00,-24
2186.00,-24
2185.00,-21
2184.00,-19
2183.00,-19
2182.00,-22
2181.00,-25
2180.00,-28
2179.00,-30
2178.00,-32
2177.00,-34
2176.00,-37
2175.00,-39
2174.00,-40
2173.00,-41
2172.00,-42
2171.00,-43
2170.00,-45
2169.00,-47
2168.00,-49
2167.00,-52
2166.00,-53
2165.00,-46
2164.00,-36
2163.00,-26
2162.00,-23
2161.00,-22
2160.00,-22
2159.00,-30
2158.00,-39
2157.00,-47
2156.00,-48
2155.00,-46
2154.00,-46
2153.00,-52
2152.00,-61
2151.00,-68
2150.00,-68
2149.00,-67
2148.00,-65
2147.00,-61
2146.00,-55
2145.00,-50
2144.00,-46
2143.00,-43
2142.00,-40
2141.00,-44
2140.00,-49
2139.00,-52
2138.00,-39
2137.00,-23
2136.00,-9
2135.00,-5
2134.00,-3
2133.00,-1
2132.00,-3
2131.00,-5
2130.00,-8
2129.00,-16
2128.00,-24
2127.00,-32
2126.00,-35
2125.00,-38
2124.00,-41
2123.00,-41
2122.00,-40
2121.00,-39
2120.00,-33
2119.00,-26
2118.00,-19
2117.00,-9
2116.00,1
2115.00,10
2114.00,13
2113.00,15
2112.00,17
2111.00,8
2110.00,-2
2109.00,-12
2108.00,-21
2107.00,-30
2106.00,-37
2105.00,-30
2104.00,-19
2103.00,-10
2102.00,-14
2101.00,-22
2100.00,-31
2099.00,-41
2098.00,-51
2097.00,-59
2096.00,-46
2095.00,-25
2094.00,-4
2093.00,5
2092.00,10
2091.00,14
2090.00,9
2089.00,1
2088.00,-8
2087.00,-13
2086.00,-15
2085.00,-17
2084.00,-13
2083.00,-4
2082.00,5
2081.00,10
2080.00,10
2079.00,11
2078.00,19
2077.00,35
2076.00,50
2075.00,55
2074.00,46
2073.00,37
2072.00,33
2071.00,36
2070.00,40
2069.00,41
2068.00,38
2067.00,34
2066.00,39
2065.00,63
2064.00,88
2063.00,103
2062.00,92
2061.00,78
2060.00,65
2059.00,51
2058.00,37
2057.00,25
2056.00,18
2055.00,13
2054.00,7
2053.00,-5
2052.00,-17
2051.00,-29
2050.00,-26
2049.00,-20
2048.00,-14
2047.00,-17
2046.00,-23
2045.00,-29
2044.00,-18
2043.00,2
2042.00,22
2041.00,37
2040.00,48
2039.00,59
2038.00,64
2037.00,64
2036.00,63
2035.00,60
2034.00,50
2033.00,41
2032.00,30
2031.00,14
2030.00,-2
2029.00,-13
2028.00,-13
2027.00,-12
2026.00,-8
2025.00,8
2024.00,26
2023.00,41
2022.00,33
2021.00,20
2020.00,8
2019.00,7
2018.00,10
2017.00,12
2016.00,19
2015.00,28
2014.00,37
2013.00,50
2012.00,68
2011.00,85
2010.00,97
2009.00,100
2008.00,104
2007.00,107
2006.00,109
2005.00,112
2004.00,113
2003.00,107
2002.00,102
2001.00,97
2000.00,97
1999.00,98
1998.00,98
1997.00,83
1996.00,64
1995.00,46
1994.00,36
1993.00,31
1992.00,25
1991.00,19
1990.00,14
1989.00,8
1988.00,17
1987.00,48
1986.00,79
1985.00,100
1984.00,96
1983.00,90
1982.00,85
1981.00,82
1980.00,79
1979.00,77
1978.00,77
1977.00,78
1976.00,80
1975.00,80
1974.00,79
1973.00,78
1972.00,82
1971.00,89
1970.00,96
1969.00,103
1968.00,108
1967.00,113
1966.00,117
1965.00,119
1964.00,121
1963.00,121
1962.00,113
1961.00,104
1960.00,95
1959.00,98
1958.00,105
1957.00,111
1956.00,113
1955.00,113
1954.00,112
1953.00,111
1952.00,109
1951.00,107
1950.00,107
1949.00,113
1948.00,120
1947.00,125
1946.00,124
1945.00,123
1944.00,121
1943.00,117
1942.00,112
1941.00,108
1940.00,106
1939.00,105
1938.00,104
1937.00,110
1936.00,127
1935.00,144
1934.00,155
1933.00,150
1932.00,145
1931.00,139
1930.00,133
1929.00,127
1928.00,121
1927.00,117
1926.00,114
1925.00,111
1924.00,112
1923.00,115
1922.00,119
1921.00,129
1920.00,151
1919.00,175
1918.00,194
1917.00,189
1916.00,181
1915.00,173
1914.00,169
1913.00,166
1912.00,164
1911.00,161
1910.00,157
1909.00,154
1908.00,150
1907.00,146
1906.00,141
1905.00,137
1904.00,136
1903.00,136
1902.00,136
1901.00,139
1900.00,143
1899.00,147
1898.00,147
1897.00,142
1896.00,138
1895.00,133
1894.00,128
1893.00,122
1892.00,117
1891.00,113
1890.00,108
1889.00,104
1888.00,100
1887.00,96
1886.00,92
1885.00,102
1884.00,126
1883.00,150
1882.00,168
1881.00,169
1880.00,169
1879.00,170
1878.00,175
1877.00,181
1876.00,186
1875.00,187
1874.00,185
1873.00,183
1872.00,183
1871.00,184
1870.00,185
1869.00,186
1868.00,182
1867.00,178
1866.00,173
1865.00,168
1864.00,163
1863.00,158
1862.00,159
1861.00,165
1860.00,172
1859.00,176
1858.00,173
1857.00,171
1856.00,168
1855.00,167
1854.00,165
1853.00,164
1852.00,163
1851.00,161
1850.00,159
1849.00,158
1848.00,158
1847.00,157
1846.00,157
1845.00,161
1844.00,165
1843.00,169
1842.00,169
1841.00,166
1840.00,163
1839.00,160
1838.00,156
1837.00,153
1836.00,149
1835.00,146
1834.00,143
1833.00,140
1832.00,146
1831.00,157
1830.00,168
1829.00,169
1828.00,155
1827.00,140
1826.00,129
1825.00,136
1824.00,146
1823.00,155
1822.00,156
1821.00,153
1820.00,149
1819.00,146
1818.00,143
1817.00,141
1816.00,138
1815.00,135
1814.00,133
1813.00,131
1812.00,128
1811.00,125
1810.00,122
1809.00,121
1808.00,121
1807.00,122
1806.00,123
1805.00,128
1804.00,133
1803.00,139
1802.00,143
1801.00,145
1800.00,147
1799.00,149
1798.00,147
1797.00,146
1796.00,144
1795.00,144
1794.00,144
1793.00,144
1792.00,149
1791.00,158
1790.00,168
1789.00,176
1788.00,181
1787.00,185
1786.00,190
1785.00,187
1784.00,181
1783.00,175
1782.00,170
1781.00,168
1780.00,166
1779.00,163
1778.00,155
1777.00,146
1776.00,137
1775.00,129
1774.00,121
1773.00,114
1772.00,107
1771.00,105
1770.00,102
1769.00,100
1768.00,103
1767.00,108
1766.00,113
1765.00,117
1764.00,120
1763.00,123
1762.00,127
1761.00,133
1760.00,141
1759.00,148
1758.00,154
1757.00,159
1756.00,165
1755.00,169
1754.00,166
1753.00,163
1752.00,161
1751.00,162
1750.00,164
1749.00,167
1748.00,171
1747.00,178
1746.00,186
1745.00,193
1744.00,192
1743.00,189
1742.00,186
1741.00,188
1740.00,196
1739.00,204
1738.00,211
1737.00,215
1736.00,218
1735.00,221
1734.00,220
1733.00,216
1732.00,212
1731.00,209
1730.00,212
1729.00,215
1728.00,219
1727.00,224
1726.00,231
1725.00,237
1724.00,244
1723.00,252
1722.00,260
1721.00,269
1720.00,277
1719.00,286
1718.00,294
1717.00,298
1716.00,292
1715.00,286
1714.00,280
1713.00,280
1712.00,280
1711.00,281
1710.00,283
1709.00,286
1708.00,289
1707.00,291
1706.00,289
1705.00,285
1704.00,282
1703.00,278
1702.00,275
1701.00,272
1700.00,270
1699.00,273
1698.00,276
1697.00,280
1696.00,280
1695.00,275
1694.00,271
1693.00,268
1692.00,280
1691.00,294
1690.00,308
1689.00,311
1688.00,303
1687.00,295
1686.00,288
1685.00,282
1684.00,276
1683.00,270
1682.00,265
1681.00,261
1680.00,257
1679.00,256
1678.00,274
1677.00,295
1676.00,315
1675.00,327
1674.00,332
1673.00,336
1672.00,340
1671.00,339
1670.00,338
1669.00,336
1668.00,339
1667.00,347
1666.00,355
1665.00,363
1664.00,363
1663.00,363
1662.00,362
1661.00,361
1660.00,360
1659.00,359
1658.00,358
1657.00,358
1656.00,359
1655.00,359
1654.00,363
1653.00,369
1652.00,375
1651.00,381
1650.00,382
1649.00,382
1648.00,382
1647.00,381
1646.00,380
1645.00,378
1644.00,377
1643.00,373
1642.00,368
1641.00,364
1640.00,361
1639.00,361
1638.00,361
1637.00,361
1636.00,360
1635.00,359
1634.00,358
1633.00,356
1632.00,352
1631.00,349
1630.00,345
1629.00,354
1628.00,370
1627.00,385
1626.00,398
1625.00,398
1624.00,396
1623.00,395
1622.00,393
1621.00,391
1620.00,389
1619.00,386
1618.00,379
1617.00,372
1616.00,365
1615.00,365
1614.00,375
1613.00,386
1612.00,395
1611.00,402
1610.00,408
1609.00,414
1608.00,418
1607.00,416
1606.00,414
1605.00,412
1604.00,408
1603.00,403
1602.00,399
1601.00,396
1600.00,402
1599.00,409
1598.00,417
1597.00,418
1596.00,413
1595.00,409
1594.00,405
1593.00,400
1592.00,396
1591.00,391
1590.00,387
1589.00,383
1588.00,379
1587.00,375
1586.00,370
1585.00,364
1584.00,358
1583.00,353
1582.00,350
1581.00,348
1580.00,345
1579.00,348
1578.00,358
1577.00,367
1576.00,376
1575.00,382
1574.00,387
1573.00,393
1572.00,400
1571.00,408
1570.00,417
1569.00,425
1568.00,432
1567.00,439
1566.00,445
1565.00,450
1564.00,445
1563.00,439
1562.00,433
1561.00,429
1560.00,427
1559.00,426
1558.00,424
1557.00,421
1556.00,419
1555.00,416
1554.00,413
1553.00,407
1552.00,402
1551.00,397
1550.00,393
1549.00,391
1548.00,389
1547.00,387
1546.00,390
1545.00,393
1544.00,396
1543.00,398
1542.00,396
1541.00,394
1540.00,391
1539.00,389
1538.00,387
1537.00,385
1536.00,384
1535.00,390
1534.00,399
1533.00,407
1532.00,413
1531.00,412
1530.00,410
1529.00,409
1528.00,409
1527.00,410
1526.00,411
1525.00,411
1524.00,409
1523.00,406
1522.00,403
1521.00,401
1520.00,400
1519.00,400
1518.00,399
1517.00,398
1516.00,398
1515.00,398
1514.00,398
1513.00,398
1512.00,398
1511.00,398
1510.00,398
1509.00,400
1508.00,401
1507.00,403
1506.00,403
1505.00,403
1504.00,403
1503.00,403
1502.00,402
1501.00,400
1500.00,399
1499.00,398
1498.00,398
1497.00,398
1496.00,398
1495.00,397
1494.00,393
1493.00,389
1492.00,385
1491.00,385
1490.00,387
1489.00,389
1488.00,391
1487.00,393
1486.00,394
1485.00,396
1484.00,396
1483.00,394
1482.00,391
1481.00,388
1480.00,387
1479.00,388
1478.00,388
1477.00,389
1476.00,389
1475.00,389
1474.00,389
1473.00,390
1472.00,394
1471.00,397
1470.00,401
1469.00,406
1468.00,412
1467.00,418
1466.00,424
1465.00,418
1464.00,404
1463.00,391
1462.00,381
1461.00,389
1460.00,402
1459.00,414
1458.00,423
1457.00,425
1456.00,426
1455.00,427
1454.00,426
1453.00,424
1452.00,421
1451.00,419
1450.00,415
1449.00,410
1448.00,405
1447.00,401
1446.00,404
1445.00,409
1444.00,413
1443.00,415
1442.00,408
1441.00,401
1440.00,394
1439.00,392
1438.00,396
1437.00,400
1436.00,404
1435.00,406
1434.00,407
1433.00,408
1432.00,409
1431.00,410
1430.00,412
1429.00,414
1428.00,416
1427.00,414
1426.00,413
1425.00,411
1424.00,410
1423.00,411
1422.00,412
1421.00,413
1420.00,418
1419.00,426
1418.00,435
1417.00,442
1416.00,443
1415.00,441
1414.00,439
1413.00,437
1412.00,438
1411.00,440
1410.00,441
1409.00,443
1408.00,444
1407.00,446
1406.00,447
1405.00,451
1404.00,459
1403.00,467
1402.00,474
1401.00,476
1400.00,473
1399.00,471
1398.00,469
1397.00,466
1396.00,463
1395.00,461
1394.00,458
1393.00,456
1392.00,455
1391.00,453
1390.00,452
1389.00,453
1388.00,454
1387.00,456
1386.00,455
1385.00,452
1384.00,448
1383.00,445
1382.00,446
1381.00,451
1380.00,456
1379.00,461
1378.00,463
1377.00,462
1376.00,462
1375.00,461
1374.00,459
1373.00,457
1372.00,455
1371.00,453
1370.00,451
1369.00,449
1368.00,447
1367.00,445
1366.00,447
1365.00,448
1364.00,449
1363.00,450
1362.00,450
1361.00,451
1360.00,451
1359.00,450
1358.00,449
1357.00,448
1356.00,447
1355.00,445
1354.00,443
1353.00,441
1352.00,440
1351.00,438
1350.00,437
1349.00,436
1348.00,434
1347.00,433
1346.00,433
1345.00,432
1344.00,431
1343.00,429
1342.00,427
1341.00,425
1340.00,423
1339.00,418
1338.00,413
1337.00,409
1336.00,404
1335.00,399
1334.00,394
1333.00,390
1332.00,386
1331.00,384
1330.00,381
1329.00,379
1328.00,377
1327.00,377
1326.00,376
1325.00,376
1324.00,372
1323.00,367
1322.00,363
1321.00,358
1320.00,350
1319.00,342
1318.00,334
1317.00,326
1316.00,323
1315.00,321
1314.00,319
1313.00,317
1312.00,314
1311.00,310
1310.00,306
1309.00,302
1308.00,294
1307.00,286
1306.00,277
1305.00,270
1304.00,264
1303.00,258
1302.00,252
1301.00,248
1300.00,247
1299.00,246
1298.00,245
1297.00,241
1296.00,230
1295.00,220
1294.00,209
1293.00,201
1292.00,199
1291.00,197
1290.00,195
1289.00,194
1288.00,192
1287.00,191
1286.00,190
1285.00,188
1284.00,185
1283.00,183
1282.00,180
1281.00,175
1280.00,168
1279.00,161
1278.00,154
1277.00,151
1276.00,151
1275.00,151
1274.00,151
1273.00,149
1272.00,144
1271.00,140
1270.00,137
1269.00,139
1268.00,144
1267.00,148
1266.00,153
1265.00,155
1264.00,156
1263.00,157
1262.00,158
1261.00,157
1260.00,155
1259.00,153
1258.00,152
1257.00,151
1256.00,150
1255.00,149
1254.00,149
1253.00,149
1252.00,150
1251.00,151
1250.00,151
1249.00,145
1248.00,138
1247.00,131
1246.00,124
1245.00,120
1244.00,117
1243.00,114
1242.00,111
1241.00,113
1240.00,115
1239.00,118
1238.00,120
1237.00,121
1236.00,121
1235.00,122
1234.00,122
1233.00,119
1232.00,117
1231.00,114
1230.00,111
1229.00,110
1228.00,109
1227.00,108
1226.00,107
1225.00,108
1224.00,109
1223.00,110
1222.00,110
1221.00,106
1220.00,101
1219.00,97
1218.00,92
1217.00,89
1216.00,86
1215.00,84
1214.00,81
1213.00,80
1212.00,79
1211.00,78
1210.00,77
1209.00,77
1208.00,78
1207.00,78
1206.00,79
1205.00,78
1204.00,78
1203.00,78
1202.00,78
1201.00,77
1200.00,75
1199.00,74
1198.00,73
1197.00,73
1196.00,72
1195.00,72
1194.00,72
1193.00,71
1192.00,71
1191.00,70
1190.00,70
1189.00,70
1188.00,71
1187.00,71
1186.00,72
1185.00,72
1184.00,71
1183.00,71
1182.00,70
1181.00,69
1180.00,68
1179.00,66
1178.00,65
1177.00,66
1176.00,67
1175.00,68
1174.00,69
1173.00,68
1172.00,67
1171.00,65
1170.00,64
1169.00,62
1168.00,59
1167.00,57
1166.00,55
1165.00,53
1164.00,52
1163.00,52
1162.00,51
1161.00,50
1160.00,48
1159.00,47
1158.00,46
1157.00,45
1156.00,45
1155.00,45
1154.00,45
1153.00,45
1152.00,46
1151.00,47
1150.00,47
1149.00,46
1148.00,40
1147.00,34
1146.00,27
1145.00,23
1144.00,26
1143.00,30
1142.00,33
1141.00,35
1140.00,35
1139.00,35
1138.00,35
1137.00,34
1136.00,33
1135.00,32
1134.00,31
1133.00,30
1132.00,30
1131.00,30
1130.00,30
1129.00,31
1128.00,34
1127.00,38
1126.00,42
1125.00,46
1124.00,47
1123.00,48
1122.00,48
1121.00,49
1120.00,48
1119.00,47
1118.00,47
1117.00,46
1116.00,44
1115.00,42
1114.00,40
1113.00,38
1112.00,37
1111.00,38
1110.00,40
1109.00,41
1108.00,41
1107.00,34
1106.00,27
1105.00,20
1104.00,14
1103.00,11
1102.00,9
1101.00,7
1100.00,5
1099.00,2
1098.00,0
1097.00,-2
1096.00,-4
1095.00,-5
1094.00,-5
1093.00,-5
1092.00,-6
1091.00,-6
1090.00,-6
1089.00,-6
1088.00,-7
1087.00,-7
1086.00,-7
1085.00,-7
1084.00,-7
1083.00,-7
1082.00,-7
1081.00,-6
1080.00,-6
1079.00,-6
1078.00,-6
1077.00,-7
1076.00,-8
1075.00,-8
1074.00,-6
1073.00,-4
1072.00,-2
1071.00,0
1070.00,3
1069.00,5
1068.00,8
1067.00,10
1066.00,11
1065.00,10
1064.00,10
1063.00,10
1062.00,11
1061.00,12
1060.00,13
1059.00,15
1058.00,14
1057.00,11
1056.00,8
1055.00,5
1054.00,2
1053.00,1
1052.00,0
1051.00,-0
1050.00,-1
1049.00,-4
1048.00,-7
1047.00,-10
1046.00,-13
1045.00,-14
1044.00,-15
1043.00,-15
1042.00,-16
1041.00,-17
1040.00,-18
1039.00,-18
1038.00,-19
1037.00,-20
1036.00,-22
1035.00,-23
1034.00,-25
1033.00,-26
1032.00,-25
1031.00,-25
1030.00,-24
1029.00,-23
1028.00,-22
1027.00,-22
1026.00,-22
1025.00,-22
1024.00,-23
1023.00,-26
1022.00,-28
1021.00,-30
1020.00,-30
1019.00,-27
1018.00,-24
1017.00,-22
1016.00,-20
1015.00,-20
1014.00,-20
1013.00,-20
1012.00,-19
1011.00,-18
1010.00,-16
1009.00,-15
1008.00,-13
1007.00,-12
1006.00,-10
1005.00,-9
1004.00,-8
1003.00,-7
1002.00,-8
1001.00,-8
1000.00,-8
999.00,-9
998.00,-11
997.00,-12
996.00,-14
995.00,-15
994.00,-17
993.00,-19
992.00,-21
991.00,-22
990.00,-20
989.00,-16
988.00,-13
987.00,-10
986.00,-9
985.00,-10
984.00,-11
983.00,-12
982.00,-12
981.00,-12
980.00,-11
979.00,-10
978.00,-10
977.00,-10
976.00,-11
975.00,-11
974.00,-11
973.00,-12
972.00,-13
971.00,-14
970.00,-14
969.00,-15
968.00,-16
967.00,-16
966.00,-17
965.00,-17
964.00,-16
963.00,-15
962.00,-14
961.00,-14
960.00,-15
959.00,-17
958.00,-20
957.00,-22
956.00,-21
955.00,-20
954.00,-18
953.00,-16
952.00,-15
951.00,-15
950.00,-15
949.00,-15
948.00,-15
947.00,-14
946.00,-14
945.00,-13
944.00,-13
943.00,-13
942.00,-14
941.00,-15
940.00,-16
939.00,-17
938.00,-16
937.00,-16
936.00,-16
935.00,-16
934.00,-15
933.00,-14
932.00,-14
931.00,-13
930.00,-14
929.00,-15
928.00,-16
927.00,-17
926.00,-18
925.00,-19
924.00,-20
923.00,-21
922.00,-22
921.00,-20
920.00,-18
919.00,-17
918.00,-15
917.00,-10
916.00,-4
915.00,1
914.00,7
913.00,10
912.00,8
911.00,6
910.00,5
909.00,2
908.00,-2
907.00,-7
906.00,-12
905.00,-17
904.00,-18
903.00,-17
902.00,-16
901.00,-15
900.00,-14
899.00,-13
898.00,-12
897.00,-11
896.00,-10
895.00,-10
894.00,-9
893.00,-9
892.00,-9
891.00,-9
890.00,-8
889.00,-8
888.00,-8
887.00,-6
886.00,-2
885.00,1
884.00,6
883.00,9
882.00,9
881.00,7
880.00,6
879.00,4
878.00,4
877.00,5
876.00,6
875.00,7
874.00,8
873.00,8
872.00,8
871.00,7
870.00,7
869.00,7
868.00,8
867.00,9
866.00,10
865.00,10
864.00,10
863.00,9
862.00,9
861.00,8
860.00,7
859.00,5
858.00,3
857.00,2
856.00,1
855.00,2
854.00,3
853.00,3
852.00,5
851.00,10
850.00,16
849.00,22
848.00,27
847.00,30
846.00,31
845.00,32
844.00,33
843.00,34
842.00,35
841.00,35
840.00,35
839.00,36
838.00,37
837.00,37
836.00,38
835.00,39
834.00,39
833.00,39
832.00,39
831.00,39
830.00,39
829.00,39
828.00,40
827.00,40
826.00,41
825.00,40
824.00,37
823.00,34
822.00,32
821.00,29
820.00,28
819.00,28
818.00,27
817.00,26
816.00,27
815.00,27
814.00,28
813.00,29
812.00,29
811.00,29
810.00,29
809.00,29
808.00,29
807.00,30
806.00,31
805.00,32
804.00,33
803.00,35
802.00,38
801.00,41
800.00,43
799.00,46
798.00,46
797.00,44
796.00,43
795.00,42
794.00,41
793.00,41
792.00,41
791.00,41
790.00,41
789.00,40
788.00,39
787.00,39
786.00,38
785.00,37
784.00,35
783.00,33
782.00,32
781.00,30
780.00,28
779.00,27
778.00,25
777.00,23
776.00,22
775.00,20
774.00,19
773.00,18
772.00,17
771.00,17
770.00,17
769.00,18
768.00,18
767.00,17
766.00,14
765.00,11
764.00,8
763.00,6
762.00,8
761.00,10
760.00,13
759.00,16
758.00,19
757.00,23
756.00,27
755.00,30
754.00,34
753.00,36
752.00,37
751.00,39
750.00,40
749.00,42
748.00,45
747.00,48
746.00,51
745.00,53
744.00,54
743.00,54
742.00,55
741.00,55
740.00,55
739.00,55
738.00,55
737.00,55
736.00,55
735.00,55
734.00,55
733.00,55
732.00,55
731.00,54
730.00,52
729.00,50
728.00,47
727.00,45
726.00,45
725.00,46
724.00,46
723.00,47
722.00,48
721.00,47
720.00,47
719.00,46
718.00,46
717.00,46
716.00,45
715.00,44
714.00,44
713.00,43
712.00,43
711.00,43
710.00,44
709.00,44
708.00,45
707.00,49
706.00,52
705.00,55
704.00,58
703.00,60
702.00,60
701.00,61
700.00,62
699.00,62
698.00,61
697.00,60
696.00,59
695.00,59
694.00,58
693.00,58
692.00,57
691.00,57
690.00,56
689.00,56
688.00,56
687.00,57
686.00,57
685.00,56
684.00,56
683.00,56
682.00,56
681.00,55
680.00,56
679.00,57
678.00,59
677.00,60
676.00,61
675.00,62
674.00,63
673.00,64
672.00,65
671.00,66
670.00,67
669.00,68
668.00,69
667.00,70
666.00,73
665.00,75
664.00,77
663.00,80
662.00,82
661.00,84
660.00,87
659.00,89
658.00,92
657.00,98
656.00,106
655.00,114
654.00,122
653.00,127
652.00,128
651.00,128
650.00,128
649.00,129
648.00,128
647.00,127
646.00,127
645.00,126
644.00,125
643.00,127
642.00,130
641.00,133
640.00,135
639.00,137
638.00,137
637.00,137
636.00,137
635.00,137
634.00,136
633.00,134
632.00,132
631.00,129
630.00,127
629.00,127
628.00,127
627.00,127
626.00,127
625.00,127
624.00,127
623.00,127
622.00,126
621.00,126
620.00,126
619.00,126
618.00,126
617.00,126
616.00,126
615.00,125
614.00,123
613.00,122
612.00,120
611.00,119
610.00,118
609.00,118
608.00,118
607.00,117
606.00,117
605.00,118
604.00,119
603.00,119
602.00,120
601.00,121
600.00,123
599.00,124
598.00,125
597.00,127
596.00,129
595.00,132
594.00,134
593.00,137
592.00,138
591.00,139
590.00,139
589.00,139
588.00,140
587.00,140
586.00,140
585.00,140
584.00,141
583.00,140
582.00,138
581.00,136
580.00,134
579.00,132
578.00,131
577.00,131
576.00,130
575.00,130
574.00,129
573.00,125
572.00,120
571.00,114
570.00,109
569.00,104
568.00,104
567.00,104
566.00,104
565.00,104
564.00,105
563.00,106
562.00,107
561.00,108
560.00,108
559.00,111
558.00,115
557.00,120
556.00,124
555.00,128
554.00,130
553.00,131
552.00,132
551.00,133
550.00,134
549.00,134
548.00,134
547.00,133
546.00,133
545.00,133
544.00,133
543.00,134
542.00,135
541.00,135
540.00,137
539.00,139
538.00,141
537.00,144
536.00,146
535.00,146
534.00,145
533.00,145
532.00,144
531.00,144
530.00,145
529.00,145
528.00,146
527.00,147
526.00,148
525.00,150
524.00,152
523.00,155
522.00,157
521.00,156
520.00,153
519.00,150
518.00,146
517.00,143
516.00,141
515.00,140
514.00,139
513.00,137
512.00,136
511.00,136
510.00,135
509.00,135
508.00,135
507.00,135
506.00,136
505.00,138
504.00,140
503.00,141
502.00,141
501.00,138
500.00,134
499.00,131
498.00,128
497.00,127
496.00,128
495.00,129
494.00,130
493.00,131
492.00,131
491.00,131
490.00,130
489.00,130
488.00,130
487.00,127
486.00,124
485.00,121
484.00,118
483.00,115
482.00,113
481.00,111
480.00,109
479.00,107
478.00,106
477.00,107
476.00,108
475.00,110
474.00,111
473.00,112
472.00,112
471.00,111
470.00,111
469.00,111
468.00,111
467.00,110
466.00,110
465.00,110
464.00,109
463.00,109
462.00,109
461.00,108
460.00,108
459.00,107
458.00,108
457.00,108
456.00,109
455.00,110
454.00,110
453.00,109
452.00,107
451.00,105
450.00,103
449.00,102
448.00,102
447.00,102
446.00,102
445.00,102
444.00,101
443.00,99
442.00,97
441.00,95
440.00,93
439.00,92
438.00,92
437.00,93
436.00,93
435.00,94
434.00,96
433.00,99
432.00,101
431.00,104
430.00,106
429.00,108
428.00,108
427.00,109
426.00,109
425.00,110
424.00,110
423.00,110
422.00,110
421.00,109
420.00,109
419.00,110
418.00,111
417.00,112
416.00,113
415.00,113
414.00,110
413.00,107
412.00,103
411.00,100
410.00,98
409.00,98
408.00,98
407.00,99
406.00,99
405.00,99
404.00,99
403.00,98
402.00,97
401.00,97
400.00,96
399.00,94
398.00,91
397.00,89
396.00,87
395.00,86
394.00,87
393.00,88
392.00,89
391.00,89
390.00,90
389.00,90
388.00,90
387.00,90
386.00,89
385.00,89
384.00,88
383.00,87
382.00,86
381.00,85
380.00,84
379.00,82
378.00,81
377.00,79
376.00,78
375.00,77
374.00,77
373.00,76
372.00,75
371.00,75
370.00,74
369.00,74
368.00,74
367.00,74
366.00,74
365.00,73
364.00,73
363.00,73
362.00,73
361.00,72
360.00,71
359.00,69
358.00,68
357.00,66
356.00,64
355.00,63
354.00,63
353.00,62
352.00,61
351.00,60
350.00,60
349.00,61
348.00,61
347.00,61
346.00,61
345.00,62
344.00,62
343.00,63
342.00,63
341.00,64
340.00,64
339.00,65
338.00,65
337.00,66
336.00,66
335.00,69
334.00,71
333.00,73
332.00,75
331.00,77
330.00,74
329.00,71
328.00,68
327.00,65
326.00,62
325.00,61
324.00,60
323.00,58
322.00,57
321.00,56
320.00,53
319.00,51
318.00,48
317.00,46
316.00,43
315.00,42
314.00,41
313.00,39
312.00,38
311.00,37
310.00,37
309.00,37
308.00,38
307.00,38
306.00,38
305.00,39
304.00,40
303.00,41
302.00,42
301.00,43
300.00,43
299.00,44
298.00,44
297.00,44
296.00,44
295.00,44
294.00,43
293.00,42
292.00,42
291.00,41
290.00,40
289.00,39
288.00,38
287.00,37
286.00,37
285.00,36
284.00,36
283.00,36
282.00,36
281.00,36
280.00,33
279.00,31
278.00,28
277.00,25
276.00,22
275.00,23
274.00,24
273.00,26
272.00,27
271.00,29
270.00,28
269.00,26
268.00,24
267.00,22
266.00,20
265.00,19
264.00,19
263.00,19
262.00,19
261.00,19
260.00,19
259.00,19
258.00,20
257.00,20
256.00,20
255.00,21
254.00,21
253.00,21
252.00,22
251.00,22
250.00,22
249.00,21
248.00,21
247.00,20
246.00,19
245.00,19
244.00,19
243.00,19
242.00,20
241.00,20
240.00,20
239.00,20
238.00,20
237.00,20
236.00,19
235.00,19
234.00,18
233.00,17
232.00,16
231.00,15
230.00,14
229.00,13
228.00,12
227.00,11
226.00,11
225.00,10
224.00,8
223.00,7
222.00,5
221.00,3
220.00,2
219.00,1
218.00,1
217.00,1
216.00,1
215.00,1
214.00,2
213.00,2
212.00,3
211.00,4
210.00,4
209.00,4
208.00,4
207.00,4
206.00,4
205.00,3
204.00,3
203.00,3
202.00,3
201.00,3
200.00,3
199.00,3
198.00,3
197.00,2
196.00,2
195.00,1
194.00,1
193.00,1
192.00,1
191.00,0
190.00,0
189.00,-0
188.00,-1
187.00,-2
186.00,-4
185.00,-5
184.00,-6
183.00,-7
182.00,-9
181.00,-10
180.00,-11
179.00,-13
178.00,-13
177.00,-14
176.00,-14
175.00,-15
174.00,-15
173.00,-12
172.00,-7
171.00,-1
170.00,4
169.00,10
168.00,13
167.00,14
166.00,15
165.00,16
164.00,17
163.00,19
162.00,20
161.00,22
160.00,24
159.00,26
158.00,28
157.00,27
156.00,26
155.00,26
154.00,25
153.00,24
152.00,24
151.00,23
150.00,22
149.00,22
148.00,21
147.00,22
146.00,23
145.00,25
144.00,26
143.00,28
142.00,31
141.00,36
140.00,42
139.00,47
138.00,53
137.00,57
136.00,56
135.00,56
134.00,55
133.00,55
132.00,55
131.00,56
130.00,56
129.00,57
128.00,58
127.00,59
126.00,60
125.00,62
124.00,63
123.00,64
122.00,65
121.00,67
120.00,69
119.00,71
118.00,73
117.00,75
116.00,77
115.00,79
114.00,82
113.00,84
112.00,86
111.00,88
110.00,91
109.00,94
108.00,97
107.00,99
106.00,102
105.00,101
104.00,99
103.00,97
102.00,95
101.00,93
100.00,90
