Created as New Dataset,
Raman Shift / cm-1,INT
3200.00,-286
3199.00,-350
3198.00,-354
3197.00,-142
3196.00,221
3195.00,410
3194.00,521
3193.00,527
3192.00,523
3191.00,520
3190.00,517
3189.00,514
3188.00,511
3187.00,507
3186.00,503
3185.00,497
3184.00,484
3183.00,365
3182.00,221
3181.00,166
3180.00,136
3179.00,134
3178.00,156
3177.00,194
3176.00,203
3175.00,203
3174.00,202
3173.00,202
3172.00,201
3171.00,222
3170.00,256
3169.00,235
3168.00,208
3167.00,236
3166.00,250
3165.00,214
3164.00,196
3163.00,194
3162.00,142
3161.00,72
3160.00,2
3159.00,-59
3158.00,-92
3157.00,-93
3156.00,-57
3155.00,-22
3154.00,16
3153.00,103
3152.00,163
3151.00,79
3150.00,18
3149.00,17
3148.00,89
3147.00,215
3146.00,291
3145.00,396
3144.00,782
3143.00,987
3142.00,567
3141.00,306
3140.00,331
3139.00,250
3138.00,110
3137.00,54
3136.00,29
3135.00,26
3134.00,41
3133.00,95
3132.00,116
3131.00,89
3130.00,78
3129.00,78
3128.00,78
3127.00,81
3126.00,104
3125.00,125
3124.00,126
3123.00,155
3122.00,232
3121.00,226
3120.00,150
3119.00,162
3118.00,206
3117.00,195
3116.00,177
3115.00,197
3114.00,207
3113.00,183
3112.00,168
3111.00,168
3110.00,152
3109.00,126
3108.00,119
3107.00,116
3106.00,76
3105.00,38
3104.00,34
3103.00,41
3102.00,63
3101.00,86
3100.00,109
3099.00,96
3098.00,52
3097.00,51
3096.00,73
3095.00,78
3094.00,75
3093.00,56
3092.00,38
3091.00,37
3090.00,19
3089.00,-43
3088.00,-81
3087.00,-80
3086.00,-58
3085.00,-16
3084.00,-1
3083.00,2
3082.00,65
3081.00,149
3080.00,245
3079.00,330
3078.00,339
3077.00,333
3076.00,313
3075.00,293
3074.00,272
3073.00,267
3072.00,286
3071.00,284
3070.00,263
3069.00,243
3068.00,223
3067.00,203
3066.00,186
3065.00,196
3064.00,202
3063.00,125
3062.00,52
3061.00,59
3060.00,81
3059.00,115
3058.00,141
3057.00,141
3056.00,135
3055.00,117
3054.00,115
3053.00,131
3052.00,148
3051.00,165
3050.00,150
3049.00,116
3048.00,105
3047.00,106
3046.00,131
3045.00,160
3044.00,153
3043.00,139
3042.00,150
3041.00,161
3040.00,148
3039.00,132
3038.00,115
3037.00,103
3036.00,101
3035.00,105
3034.00,120
3033.00,136
3032.00,151
3031.00,159
3030.00,159
3029.00,172
3028.00,202
3027.00,216
3026.00,215
3025.00,222
3024.00,237
3023.00,340
3022.00,495
3021.00,465
3020.00,337
3019.00,293
3018.00,296
3017.00,399
3016.00,525
3015.00,451
3014.00,314
3013.00,228
3012.00,161
3011.00,136
3010.00,123
3009.00,120
3008.00,120
3007.00,119
3006.00,119
3005.00,119
3004.00,120
3003.00,131
3002.00,138
3001.00,115
3000.00,97
2999.00,118
2998.00,135
2997.00,113
2996.00,96
2995.00,117
2994.00,130
2993.00,97
2992.00,69
2991.00,77
2990.00,87
2989.00,88
2988.00,88
2987.00,87
2986.00,89
2985.00,100
2984.00,112
2983.00,123
2982.00,132
2981.00,132
2980.00,132
2979.00,132
2978.00,129
2977.00,118
2976.00,116
2975.00,158
2974.00,199
2973.00,223
2972.00,241
2971.00,242
2970.00,242
2969.00,252
2968.00,260
2967.00,260
2966.00,248
2965.00,188
2964.00,131
2963.00,124
2962.00,128
2961.00,156
2960.00,183
2959.00,187
2958.00,186
2957.00,185
2956.00,190
2955.00,241
2954.00,297
2953.00,308
2952.00,308
2951.00,322
2950.00,337
2949.00,303
2948.00,253
2947.00,238
2946.00,237
2945.00,236
2944.00,236
2943.00,235
2942.00,234
2941.00,233
2940.00,232
2939.00,231
2938.00,230
2937.00,233
2936.00,242
2935.00,225
2934.00,177
2933.00,141
2932.00,122
2931.00,113
2930.00,121
2929.00,135
2928.00,161
2927.00,181
2926.00,181
2925.00,180
2924.00,180
2923.00,183
2922.00,206
2921.00,226
2920.00,213
2919.00,197
2918.00,193
2917.00,191
2916.00,184
2915.00,175
2914.00,154
2913.00,128
2912.00,113
2911.00,104
2910.00,110
2909.00,126
2908.00,130
2907.00,121
2906.00,116
2905.00,115
2904.00,115
2903.00,114
2902.00,110
2901.00,95
2900.00,83
2899.00,96
2898.00,109
2897.00,104
2896.00,96
2895.00,94
2894.00,94
2893.00,111
2892.00,133
2891.00,146
2890.00,153
2889.00,156
2888.00,155
2887.00,152
2886.00,144
2885.00,131
2884.00,109
2883.00,91
2882.00,89
2881.00,83
2880.00,43
2879.00,3
2878.00,-4
2877.00,-3
2876.00,23
2875.00,58
2874.00,76
2873.00,82
2872.00,85
2871.00,85
2870.00,87
2869.00,94
2868.00,95
2867.00,82
2866.00,72
2865.00,83
2864.00,96
2863.00,103
2862.00,109
2861.00,105
2860.00,98
2859.00,95
2858.00,95
2857.00,94
2856.00,94
2855.00,95
2854.00,101
2853.00,106
2852.00,106
2851.00,105
2850.00,99
2849.00,92
2848.00,85
2847.00,79
2846.00,92
2845.00,117
2844.00,120
2843.00,101
2842.00,88
2841.00,88
2840.00,87
2839.00,87
2838.00,87
2837.00,86
2836.00,85
2835.00,71
2834.00,54
2833.00,46
2832.00,46
2831.00,41
2830.00,29
2829.00,20
2828.00,20
2827.00,19
2826.00,14
2825.00,8
2824.00,12
2823.00,17
2822.00,23
2821.00,28
2820.00,50
2819.00,94
2818.00,114
2817.00,73
2816.00,38
2815.00,47
2814.00,64
2813.00,92
2812.00,124
2811.00,133
2810.00,127
2809.00,110
2808.00,78
2807.00,54
2806.00,52
2805.00,51
2804.00,51
2803.00,51
2802.00,51
2801.00,50
2800.00,53
2799.00,58
2798.00,61
2797.00,61
2796.00,62
2795.00,71
2794.00,80
2793.00,82
2792.00,81
2791.00,78
2790.00,73
2789.00,64
2788.00,49
2787.00,38
2786.00,41
2785.00,46
2784.00,54
2783.00,63
2782.00,64
2781.00,59
2780.00,56
2779.00,55
2778.00,57
2777.00,65
2776.00,73
2775.00,63
2774.00,49
2773.00,38
2772.00,28
2771.00,25
2770.00,34
2769.00,41
2768.00,42
2767.00,42
2766.00,42
2765.00,41
2764.00,44
2763.00,48
2762.00,49
2761.00,45
2760.00,39
2759.00,27
2758.00,14
2757.00,10
2756.00,10
2755.00,6
2754.00,-3
2753.00,-10
2752.00,-10
2751.00,-10
2750.00,-3
2749.00,5
2748.00,19
2747.00,35
2746.00,48
2745.00,52
2744.00,55
2743.00,59
2742.00,63
2741.00,61
2740.00,57
2739.00,58
2738.00,65
2737.00,70
2736.00,63
2735.00,52
2734.00,13
2733.00,-35
2732.00,-43
2731.00,-15
2730.00,5
2729.00,6
2728.00,5
2727.00,2
2726.00,-2
2725.00,3
2724.00,14
2723.00,25
2722.00,32
2721.00,40
2720.00,51
2719.00,62
2718.00,66
2717.00,65
2716.00,65
2715.00,65
2714.00,63
2713.00,50
2712.00,35
2711.00,29
2710.00,29
2709.00,28
2708.00,24
2707.00,21
2706.00,20
2705.00,20
2704.00,22
2703.00,25
2702.00,31
2701.00,41
2700.00,50
2699.00,52
2698.00,51
2697.00,51
2696.00,51
2695.00,50
2694.00,46
2693.00,43
2692.00,42
2691.00,41
2690.00,39
2689.00,36
2688.00,33
2687.00,33
2686.00,32
2685.00,29
2684.00,26
2683.00,24
2682.00,24
2681.00,23
2680.00,23
2679.00,23
2678.00,21
2677.00,17
2676.00,14
2675.00,10
2674.00,6
2673.00,-3
2672.00,-13
2671.00,-17
2670.00,-17
2669.00,-16
2668.00,-13
2667.00,-10
2666.00,3
2665.00,19
2664.00,29
2663.00,32
2662.00,41
2661.00,80
2660.00,122
2659.00,130
2658.00,116
2657.00,101
2656.00,82
2655.00,66
2654.00,62
2653.00,62
2652.00,61
2651.00,61
2650.00,59
2649.00,45
2648.00,30
2647.00,24
2646.00,24
2645.00,24
2644.00,24
2643.00,24
2642.00,31
2641.00,39
2640.00,41
2639.00,32
2638.00,24
2637.00,22
2636.00,22
2635.00,24
2634.00,26
2633.00,28
2632.00,28
2631.00,28
2630.00,28
2629.00,28
2628.00,27
2627.00,27
2626.00,27
2625.00,29
2624.00,32
2623.00,34
2622.00,37
2621.00,38
2620.00,31
2619.00,23
2618.00,19
2617.00,19
2616.00,19
2615.00,24
2614.00,29
2613.00,28
2612.00,22
2611.00,18
2610.00,18
2609.00,17
2608.00,17
2607.00,17
2606.00,18
2605.00,20
2604.00,22
2603.00,23
2602.00,22
2601.00,23
2600.00,26
2599.00,28
2598.00,28
2597.00,28
2596.00,31
2595.00,38
2594.00,44
2593.00,40
2592.00,35
2591.00,33
2590.00,32
2589.00,32
2588.00,29
2587.00,27
2586.00,19
2585.00,7
2584.00,-3
2583.00,-5
2582.00,-5
2581.00,0
2580.00,10
2579.00,15
2578.00,5
2577.00,-6
2576.00,-18
2575.00,-30
2574.00,-36
2573.00,-15
2572.00,8
2571.00,17
2570.00,17
2569.00,15
2568.00,9
2567.00,2
2566.00,3
2565.00,10
2564.00,15
2563.00,16
2562.00,15
2561.00,13
2560.00,8
2559.00,4
2558.00,1
2557.00,-1
2556.00,0
2555.00,5
2554.00,8
2553.00,4
2552.00,-0
2551.00,-2
2550.00,1
2549.00,3
2548.00,9
2547.00,15
2546.00,20
2545.00,25
2544.00,28
2543.00,29
2542.00,28
2541.00,26
2540.00,22
2539.00,18
2538.00,21
2537.00,25
2536.00,28
2535.00,30
2534.00,32
2533.00,32
2532.00,32
2531.00,32
2530.00,31
2529.00,31
2528.00,32
2527.00,34
2526.00,35
2525.00,31
2524.00,27
2523.00,21
2522.00,15
2521.00,10
2520.00,11
2519.00,13
2518.00,14
2517.00,14
2516.00,14
2515.00,13
2514.00,13
2513.00,13
2512.00,13
2511.00,13
2510.00,10
2509.00,6
2508.00,3
2507.00,2
2506.00,2
2505.00,2
2504.00,2
2503.00,2
2502.00,4
2501.00,6
2500.00,7
2499.00,9
2498.00,11
2497.00,13
2496.00,14
2495.00,15
2494.00,15
2493.00,15
2492.00,14
2491.00,12
2490.00,9
2489.00,6
2488.00,2
2487.00,1
2486.00,3
2485.00,5
2484.00,8
2483.00,12
2482.00,12
2481.00,8
2480.00,5
2479.00,7
2478.00,10
2477.00,13
2476.00,13
2475.00,12
2474.00,11
2473.00,9
2472.00,7
2471.00,1
2470.00,-6
2469.00,-9
2468.00,-4
2467.00,1
2466.00,-0
2465.00,-4
2464.00,-6
2463.00,-5
2462.00,-3
2461.00,-2
2460.00,-0
2459.00,1
2458.00,3
2457.00,4
2456.00,6
2455.00,5
2454.00,5
2453.00,6
2452.00,8
2451.00,9
2450.00,9
2449.00,9
2448.00,10
2447.00,11
2446.00,12
2445.00,14
2444.00,15
2443.00,16
2442.00,13
2441.00,10
2440.00,9
2439.00,12
2438.00,15
2437.00,16
2436.00,16
2435.00,16
2434.00,16
2433.00,15
2432.00,14
2431.00,11
2430.00,8
2429.00,7
2428.00,7
2427.00,6
2426.00,5
2425.00,3
2424.00,2
2423.00,2
2422.00,2
2421.00,-1
2420.00,-4
2419.00,-6
2418.00,-7
2417.00,-7
2416.00,-6
2415.00,-3
2414.00,1
2413.00,14
2412.00,32
2411.00,43
2410.00,21
2409.00,-4
2408.00,-19
2407.00,-18
2406.00,-16
2405.00,-9
2404.00,2
2403.00,9
2402.00,1
2401.00,-9
2400.00,-16
2399.00,-16
2398.00,-16
2397.00,-10
2396.00,-0
2395.00,9
2394.00,11
2393.00,11
2392.00,11
2391.00,12
2390.00,13
2389.00,14
2388.00,14
2387.00,14
2386.00,14
2385.00,14
2384.00,13
2383.00,9
2382.00,4
2381.00,2
2380.00,2
2379.00,1
2378.00,0
2377.00,-1
2376.00,-3
2375.00,-4
2374.00,-5
2373.00,-7
2372.00,-7
2371.00,-7
2370.00,-6
2369.00,-5
2368.00,-4
2367.00,-3
2366.00,-3
2365.00,-4
2364.00,-5
2363.00,-6
2362.00,-7
2361.00,-8
2360.00,-8
2359.00,-6
2358.00,-2
2357.00,2
2356.00,3
2355.00,3
2354.00,3
2353.00,1
2352.00,-0
2351.00,-1
2350.00,-3
2349.00,-4
2348.00,-5
2347.00,-5
2346.00,-5
2345.00,-4
2344.00,-3
2343.00,-2
2342.00,-3
2341.00,-5
2340.00,-5
2339.00,-2
2338.00,0
2337.00,1
2336.00,1
2335.00,1
2334.00,-2
2333.00,-6
2332.00,-9
2331.00,-8
2330.00,-7
2329.00,-6
2328.00,-6
2327.00,-6
2326.00,-7
2325.00,-7
2324.00,-7
2323.00,-7
2322.00,-7
2321.00,-6
2320.00,-2
2319.00,4
2318.00,10
2317.00,10
2316.00,10
2315.00,10
2314.00,11
2313.00,12
2312.00,14
2311.00,15
2310.00,16
2309.00,15
2308.00,14
2307.00,12
2306.00,7
2305.00,1
2304.00,-4
2303.00,-3
2302.00,-2
2301.00,-2
2300.00,-4
2299.00,-7
2298.00,-8
2297.00,-8
2296.00,-8
2295.00,-5
2294.00,-1
2293.00,4
2292.00,6
2291.00,7
2290.00,8
2289.00,8
2288.00,8
2287.00,8
2286.00,9
2285.00,10
2284.00,10
2283.00,8
2282.00,5
2281.00,3
2280.00,2
2279.00,1
2278.00,1
2277.00,2
2276.00,3
2275.00,3
2274.00,1
2273.00,0
2272.00,-2
2271.00,-5
2270.00,-6
2269.00,-7
2268.00,-7
2267.00,-7
2266.00,-7
2265.00,-7
2264.00,-7
2263.00,-9
2262.00,-10
2261.00,-10
2260.00,-10
2259.00,-10
2258.00,-9
2257.00,-8
2256.00,-7
2255.00,-7
2254.00,-7
2253.00,-7
2252.00,-7
2251.00,-7
2250.00,-7
2249.00,-6
2248.00,-5
2247.00,-4
2246.00,-3
2245.00,-2
2244.00,-3
2243.00,-5
2242.00,-7
2241.00,-9
2240.00,-10
2239.00,-11
2238.00,-10
2237.00,-9
2236.00,-8
2235.00,-9
2234.00,-10
2233.00,-11
2232.00,-12
2231.00,-14
2230.00,-14
2229.00,-12
2228.00,-10
2227.00,-8
2226.00,-3
2225.00,1
2224.00,2
2223.00,-2
2222.00,-6
2221.00,-10
2220.00,-12
2219.00,-14
2218.00,-15
2217.00,-13
2216.00,-12
2215.00,-12
2214.00,-12
2213.00,-12
2212.00,-12
2211.00,-12
2210.00,-12
2209.00,-10
2208.00,-7
2207.00,-4
2206.00,-2
2205.00,-1
2204.00,0
2203.00,3
2202.00,6
2201.00,8
2200.00,7
2199.00,5
2198.00,2
2197.00,-1
2196.00,-4
2195.00,-6
2194.00,-4
2193.00,-2
2192.00,-1
2191.00,-2
2190.00,-3
2189.00,-4
2188.00,-4
2187.00,-4
2186.00,-4
2185.00,-4
2184.00,-4
2183.00,-3
2182.00,-1
2181.00,1
2180.00,2
2179.00,2
2178.00,2
2177.00,2
2176.00,2
2175.00,2
2174.00,3
2173.00,5
2172.00,7
2171.00,8
2170.00,8
2169.00,7
2168.00,7
2167.00,6
2166.00,5
2165.00,2
2164.00,-1
2163.00,-4
2162.00,-3
2161.00,-1
2160.00,1
2159.00,-1
2158.00,-5
2157.00,-7
2156.00,-8
2155.00,-8
2154.00,-8
2153.00,-8
2152.00,-8
2151.00,-8
2150.00,-10
2149.00,-12
2148.00,-14
2147.00,-11
2146.00,-8
2145.00,-6
2144.00,-4
2143.00,-2
2142.00,0
2141.00,0
2140.00,0
2139.00,-1
2138.00,-11
2137.00,-23
2136.00,-32
2135.00,-25
2134.00,-16
2133.00,-7
2132.00,-7
2131.00,-8
2130.00,-10
2129.00,-18
2128.00,-28
2127.00,-35
2126.00,-28
2125.00,-19
2124.00,-10
2123.00,-8
2122.00,-8
2121.00,-7
2120.00,-4
2119.00,-1
2118.00,1
2117.00,1
2116.00,1
2115.00,1
2114.00,1
2113.00,1
2112.00,1
2111.00,1
2110.00,1
2109.00,0
2108.00,1
2107.00,2
2106.00,2
2105.00,2
2104.00,1
2103.00,-0
2102.00,0
2101.00,1
2100.00,2
2099.00,2
2098.00,2
2097.00,2
2096.00,1
2095.00,1
2094.00,1
2093.00,1
2092.00,1
2091.00,1
2090.00,2
2089.00,3
2088.00,5
2087.00,5
2086.00,5
2085.00,5
2084.00,4
2083.00,2
2082.00,0
2081.00,-1
2080.00,-1
2079.00,-1
2078.00,-1
2077.00,-1
2076.00,-1
2075.00,-0
2074.00,2
2073.00,4
2072.00,5
2071.00,5
2070.00,5
2069.00,5
2068.00,6
2067.00,8
2066.00,9
2065.00,9
2064.00,10
2063.00,10
2062.00,11
2061.00,11
2060.00,12
2059.00,11
2058.00,10
2057.00,9
2056.00,8
2055.00,7
2054.00,6
2053.00,3
2052.00,-0
2051.00,-3
2050.00,-4
2049.00,-4
2048.00,-4
2047.00,-4
2046.00,-4
2045.00,-5
2044.00,-5
2043.00,-5
2042.00,-5
2041.00,-5
2040.00,-4
2039.00,-3
2038.00,-2
2037.00,-1
2036.00,1
2035.00,2
2034.00,0
2033.00,-1
2032.00,-3
2031.00,-9
2030.00,-15
2029.00,-18
2028.00,-10
2027.00,-2
2026.00,5
2025.00,1
2024.00,-5
2023.00,-11
2022.00,-16
2021.00,-20
2020.00,-25
2019.00,-21
2018.00,-14
2017.00,-7
2016.00,-5
2015.00,-5
2014.00,-5
2013.00,-5
2012.00,-6
2011.00,-7
2010.00,-6
2009.00,-5
2008.00,-3
2007.00,-2
2006.00,-1
2005.00,1
2004.00,2
2003.00,5
2002.00,8
2001.00,11
2000.00,9
1999.00,6
1998.00,3
1997.00,4
1996.00,5
1995.00,7
1994.00,7
1993.00,7
1992.00,7
1991.00,7
1990.00,7
1989.00,7
1988.00,7
1987.00,7
1986.00,7
1985.00,6
1984.00,5
1983.00,4
1982.00,3
1981.00,2
1980.00,1
1979.00,-0
1978.00,-0
1977.00,-0
1976.00,-0
1975.00,-0
1974.00,-0
1973.00,-0
1972.00,0
1971.00,1
1970.00,2
1969.00,3
1968.00,2
1967.00,2
1966.00,2
1965.00,2
1964.00,2
1963.00,2
1962.00,2
1961.00,2
1960.00,2
1959.00,2
1958.00,2
1957.00,2
1956.00,2
1955.00,3
1954.00,4
1953.00,4
1952.00,4
1951.00,3
1950.00,3
1949.00,3
1948.00,4
1947.00,4
1946.00,3
1945.00,2
1944.00,1
1943.00,1
1942.00,1
1941.00,1
1940.00,2
1939.00,3
1938.00,5
1937.00,6
1936.00,6
1935.00,6
1934.00,7
1933.00,7
1932.00,7
1931.00,7
1930.00,8
1929.00,9
1928.00,10
1927.00,11
1926.00,10
1925.00,10
1924.00,10
1923.00,11
1922.00,11
1921.00,12
1920.00,13
1919.00,13
1918.00,14
1917.00,13
1916.00,12
1915.00,11
1914.00,11
1913.00,10
1912.00,9
1911.00,9
1910.00,9
1909.00,9
1908.00,9
1907.00,10
1906.00,10
1905.00,10
1904.00,11
1903.00,11
1902.00,12
1901.00,12
1900.00,12
1899.00,13
1898.00,13
1897.00,13
1896.00,14
1895.00,14
1894.00,15
1893.00,16
1892.00,16
1891.00,16
1890.00,16
1889.00,16
1888.00,14
1887.00,12
1886.00,10
1885.00,9
1884.00,10
1883.00,10
1882.00,11
1881.00,11
1880.00,11
1879.00,11
1878.00,11
1877.00,10
1876.00,9
1875.00,9
1874.00,10
1873.00,11
1872.00,11
1871.00,12
1870.00,12
1869.00,13
1868.00,13
1867.00,14
1866.00,15
1865.00,17
1864.00,19
1863.00,20
1862.00,21
1861.00,21
1860.00,21
1859.00,21
1858.00,20
1857.00,20
1856.00,20
1855.00,19
1854.00,19
1853.00,18
1852.00,17
1851.00,15
1850.00,14
1849.00,13
1848.00,13
1847.00,13
1846.00,12
1845.00,11
1844.00,10
1843.00,9
1842.00,9
1841.00,9
1840.00,9
1839.00,9
1838.00,9
1837.00,9
1836.00,10
1835.00,10
1834.00,11
1833.00,12
1832.00,13
1831.00,13
1830.00,14
1829.00,15
1828.00,15
1827.00,16
1826.00,17
1825.00,19
1824.00,20
1823.00,22
1822.00,21
1821.00,20
1820.00,18
1819.00,17
1818.00,18
1817.00,20
1816.00,21
1815.00,21
1814.00,21
1813.00,21
1812.00,19
1811.00,16
1810.00,13
1809.00,12
1808.00,14
1807.00,16
1806.00,17
1805.00,18
1804.00,18
1803.00,18
1802.00,18
1801.00,18
1800.00,18
1799.00,18
1798.00,17
1797.00,17
1796.00,16
1795.00,18
1794.00,21
1793.00,24
1792.00,25
1791.00,25
1790.00,25
1789.00,25
1788.00,25
1787.00,25
1786.00,25
1785.00,24
1784.00,21
1783.00,18
1782.00,17
1781.00,17
1780.00,17
1779.00,18
1778.00,18
1777.00,18
1776.00,18
1775.00,18
1774.00,18
1773.00,18
1772.00,18
1771.00,18
1770.00,18
1769.00,18
1768.00,18
1767.00,19
1766.00,19
1765.00,20
1764.00,19
1763.00,18
1762.00,18
1761.00,19
1760.00,20
1759.00,21
1758.00,22
1757.00,21
1756.00,20
1755.00,20
1754.00,20
1753.00,20
1752.00,21
1751.00,21
1750.00,21
1749.00,22
1748.00,22
1747.00,23
1746.00,23
1745.00,24
1744.00,26
1743.00,29
1742.00,32
1741.00,33
1740.00,33
1739.00,33
1738.00,33
1737.00,34
1736.00,36
1735.00,37
1734.00,39
1733.00,39
1732.00,40
1731.00,41
1730.00,40
1729.00,38
1728.00,37
1727.00,36
1726.00,37
1725.00,37
1724.00,37
1723.00,37
1722.00,36
1721.00,36
1720.00,36
1719.00,35
1718.00,35
1717.00,34
1716.00,33
1715.00,33
1714.00,32
1713.00,32
1712.00,31
1711.00,31
1710.00,31
1709.00,32
1708.00,33
1707.00,33
1706.00,34
1705.00,35
1704.00,35
1703.00,36
1702.00,38
1701.00,39
1700.00,40
1699.00,40
1698.00,40
1697.00,40
1696.00,39
1695.00,39
1694.00,39
1693.00,39
1692.00,39
1691.00,39
1690.00,39
1689.00,39
1688.00,38
1687.00,37
1686.00,36
1685.00,36
1684.00,36
1683.00,36
1682.00,34
1681.00,32
1680.00,29
1679.00,27
1678.00,25
1677.00,23
1676.00,21
1675.00,20
1674.00,20
1673.00,20
1672.00,20
1671.00,20
1670.00,20
1669.00,20
1668.00,21
1667.00,22
1666.00,24
1665.00,26
1664.00,28
1663.00,30
1662.00,32
1661.00,33
1660.00,34
1659.00,34
1658.00,35
1657.00,35
1656.00,36
1655.00,37
1654.00,36
1653.00,35
1652.00,34
1651.00,33
1650.00,32
1649.00,32
1648.00,32
1647.00,32
1646.00,32
1645.00,32
1644.00,32
1643.00,31
1642.00,31
1641.00,31
1640.00,31
1639.00,32
1638.00,33
1637.00,34
1636.00,34
1635.00,34
1634.00,34
1633.00,35
1632.00,35
1631.00,36
1630.00,36
1629.00,41
1628.00,47
1627.00,53
1626.00,60
1625.00,70
1624.00,80
1623.00,90
1622.00,99
1621.00,106
1620.00,114
1619.00,121
1618.00,122
1617.00,121
1616.00,121
1615.00,121
1614.00,121
1613.00,121
1612.00,121
1611.00,121
1610.00,121
1609.00,121
1608.00,119
1607.00,109
1606.00,98
1605.00,89
1604.00,82
1603.00,78
1602.00,73
1601.00,69
1600.00,63
1599.00,58
1598.00,53
1597.00,49
1596.00,47
1595.00,45
1594.00,43
1593.00,41
1592.00,40
1591.00,39
1590.00,38
1589.00,37
1588.00,35
1587.00,34
1586.00,31
1585.00,28
1584.00,24
1583.00,21
1582.00,22
1581.00,24
1580.00,25
1579.00,26
1578.00,25
1577.00,25
1576.00,25
1575.00,27
1574.00,28
1573.00,30
1572.00,31
1571.00,32
1570.00,33
1569.00,34
1568.00,34
1567.00,34
1566.00,35
1565.00,35
1564.00,35
1563.00,35
1562.00,36
1561.00,36
1560.00,36
1559.00,36
1558.00,36
1557.00,36
1556.00,37
1555.00,37
1554.00,37
1553.00,38
1552.00,40
1551.00,41
1550.00,42
1549.00,42
1548.00,43
1547.00,43
1546.00,44
1545.00,44
1544.00,45
1543.00,46
1542.00,45
1541.00,45
1540.00,45
1539.00,45
1538.00,45
1537.00,45
1536.00,45
1535.00,44
1534.00,44
1533.00,44
1532.00,44
1531.00,42
1530.00,41
1529.00,39
1528.00,39
1527.00,39
1526.00,39
1525.00,39
1524.00,39
1523.00,38
1522.00,37
1521.00,37
1520.00,37
1519.00,36
1518.00,36
1517.00,36
1516.00,36
1515.00,36
1514.00,35
1513.00,35
1512.00,35
1511.00,35
1510.00,35
1509.00,33
1508.00,32
1507.00,31
1506.00,30
1505.00,30
1504.00,30
1503.00,31
1502.00,31
1501.00,30
1500.00,30
1499.00,30
1498.00,29
1497.00,27
1496.00,26
1495.00,26
1494.00,27
1493.00,28
1492.00,29
1491.00,30
1490.00,30
1489.00,31
1488.00,31
1487.00,32
1486.00,33
1485.00,34
1484.00,35
1483.00,35
1482.00,34
1481.00,34
1480.00,34
1479.00,34
1478.00,34
1477.00,33
1476.00,33
1475.00,34
1474.00,34
1473.00,34
1472.00,35
1471.00,37
1470.00,38
1469.00,39
1468.00,39
1467.00,39
1466.00,39
1465.00,40
1464.00,43
1463.00,45
1462.00,47
1461.00,48
1460.00,49
1459.00,49
1458.00,50
1457.00,50
1456.00,50
1455.00,51
1454.00,51
1453.00,50
1452.00,50
1451.00,49
1450.00,49
1449.00,50
1448.00,50
1447.00,50
1446.00,50
1445.00,50
1444.00,50
1443.00,50
1442.00,50
1441.00,50
1440.00,50
1439.00,50
1438.00,50
1437.00,49
1436.00,49
1435.00,48
1434.00,48
1433.00,48
1432.00,48
1431.00,47
1430.00,46
1429.00,45
1428.00,45
1427.00,45
1426.00,45
1425.00,44
1424.00,44
1423.00,45
1422.00,45
1421.00,45
1420.00,46
1419.00,46
1418.00,46
1417.00,46
1416.00,46
1415.00,46
1414.00,47
1413.00,47
1412.00,47
1411.00,47
1410.00,47
1409.00,48
1408.00,47
1407.00,47
1406.00,46
1405.00,46
1404.00,45
1403.00,44
1402.00,43
1401.00,43
1400.00,43
1399.00,42
1398.00,42
1397.00,41
1396.00,39
1395.00,38
1394.00,37
1393.00,36
1392.00,36
1391.00,36
1390.00,36
1389.00,37
1388.00,37
1387.00,38
1386.00,38
1385.00,39
1384.00,39
1383.00,39
1382.00,39
1381.00,39
1380.00,39
1379.00,39
1378.00,39
1377.00,38
1376.00,38
1375.00,38
1374.00,38
1373.00,38
1372.00,37
1371.00,37
1370.00,37
1369.00,38
1368.00,39
1367.00,40
1366.00,40
1365.00,39
1364.00,39
1363.00,39
1362.00,40
1361.00,40
1360.00,40
1359.00,40
1358.00,40
1357.00,39
1356.00,39
1355.00,39
1354.00,39
1353.00,39
1352.00,39
1351.00,40
1350.00,41
1349.00,41
1348.00,42
1347.00,43
1346.00,44
1345.00,45
1344.00,46
1343.00,46
1342.00,46
1341.00,46
1340.00,46
1339.00,46
1338.00,46
1337.00,46
1336.00,46
1335.00,46
1334.00,46
1333.00,46
1332.00,46
1331.00,44
1330.00,43
1329.00,42
1328.00,43
1327.00,46
1326.00,48
1325.00,51
1324.00,53
1323.00,56
1322.00,58
1321.00,60
1320.00,61
1319.00,61
1318.00,61
1317.00,61
1316.00,63
1315.00,65
1314.00,67
1313.00,69
1312.00,69
1311.00,70
1310.00,70
1309.00,70
1308.00,70
1307.00,69
1306.00,69
1305.00,69
1304.00,68
1303.00,66
1302.00,65
1301.00,63
1300.00,61
1299.00,58
1298.00,55
1297.00,54
1296.00,54
1295.00,54
1294.00,54
1293.00,54
1292.00,53
1291.00,52
1290.00,51
1289.00,50
1288.00,51
1287.00,51
1286.00,52
1285.00,52
1284.00,51
1283.00,50
1282.00,49
1281.00,49
1280.00,49
1279.00,49
1278.00,49
1277.00,49
1276.00,48
1275.00,48
1274.00,47
1273.00,47
1272.00,47
1271.00,47
1270.00,47
1269.00,47
1268.00,47
1267.00,47
1266.00,47
1265.00,48
1264.00,50
1263.00,52
1262.00,54
1261.00,55
1260.00,57
1259.00,58
1258.00,59
1257.00,60
1256.00,60
1255.00,61
1254.00,62
1253.00,62
1252.00,62
1251.00,62
1250.00,62
1249.00,62
1248.00,62
1247.00,62
1246.00,62
1245.00,61
1244.00,61
1243.00,61
1242.00,61
1241.00,57
1240.00,54
1239.00,50
1238.00,47
1237.00,45
1236.00,44
1235.00,42
1234.00,41
1233.00,38
1232.00,36
1231.00,34
1230.00,32
1229.00,32
1228.00,31
1227.00,31
1226.00,31
1225.00,29
1224.00,28
1223.00,26
1222.00,25
1221.00,24
1220.00,24
1219.00,24
1218.00,24
1217.00,24
1216.00,24
1215.00,24
1214.00,24
1213.00,27
1212.00,30
1211.00,34
1210.00,37
1209.00,37
1208.00,37
1207.00,38
1206.00,38
1205.00,38
1204.00,38
1203.00,38
1202.00,39
1201.00,40
1200.00,42
1199.00,43
1198.00,45
1197.00,46
1196.00,47
1195.00,49
1194.00,50
1193.00,51
1192.00,53
1191.00,55
1190.00,56
1189.00,57
1188.00,57
1187.00,57
1186.00,57
1185.00,56
1184.00,56
1183.00,56
1182.00,55
1181.00,54
1180.00,52
1179.00,49
1178.00,47
1177.00,45
1176.00,43
1175.00,40
1174.00,38
1173.00,35
1172.00,32
1171.00,28
1170.00,25
1169.00,24
1168.00,24
1167.00,24
1166.00,24
1165.00,24
1164.00,24
1163.00,24
1162.00,24
1161.00,24
1160.00,24
1159.00,23
1158.00,23
1157.00,23
1156.00,22
1155.00,21
1154.00,20
1153.00,19
1152.00,19
1151.00,18
1150.00,18
1149.00,17
1148.00,17
1147.00,17
1146.00,17
1145.00,17
1144.00,16
1143.00,16
1142.00,16
1141.00,15
1140.00,16
1139.00,16
1138.00,16
1137.00,16
1136.00,16
1135.00,16
1134.00,16
1133.00,16
1132.00,16
1131.00,16
1130.00,16
1129.00,16
1128.00,16
1127.00,15
1126.00,15
1125.00,14
1124.00,14
1123.00,15
1122.00,15
1121.00,15
1120.00,16
1119.00,17
1118.00,18
1117.00,18
1116.00,19
1115.00,19
1114.00,18
1113.00,18
1112.00,18
1111.00,18
1110.00,18
1109.00,18
1108.00,18
1107.00,18
1106.00,18
1105.00,18
1104.00,18
1103.00,17
1102.00,16
1101.00,15
1100.00,14
1099.00,14
1098.00,14
1097.00,14
1096.00,14
1095.00,15
1094.00,16
1093.00,18
1092.00,19
1091.00,20
1090.00,21
1089.00,22
1088.00,22
1087.00,23
1086.00,23
1085.00,23
1084.00,23
1083.00,23
1082.00,23
1081.00,23
1080.00,23
1079.00,22
1078.00,21
1077.00,20
1076.00,18
1075.00,17
1074.00,19
1073.00,20
1072.00,21
1071.00,22
1070.00,22
1069.00,22
1068.00,21
1067.00,21
1066.00,20
1065.00,19
1064.00,17
1063.00,16
1062.00,16
1061.00,18
1060.00,19
1059.00,20
1058.00,20
1057.00,19
1056.00,19
1055.00,18
1054.00,17
1053.00,17
1052.00,17
1051.00,17
1050.00,17
1049.00,17
1048.00,17
1047.00,17
1046.00,16
1045.00,16
1044.00,15
1043.00,14
1042.00,13
1041.00,12
1040.00,12
1039.00,12
1038.00,11
1037.00,11
1036.00,11
1035.00,10
1034.00,10
1033.00,10
1032.00,9
1031.00,9
1030.00,9
1029.00,9
1028.00,10
1027.00,11
1026.00,12
1025.00,13
1024.00,14
1023.00,14
1022.00,14
1021.00,14
1020.00,14
1019.00,14
1018.00,14
1017.00,14
1016.00,13
1015.00,13
1014.00,13
1013.00,13
1012.00,13
1011.00,12
1010.00,10
1009.00,8
1008.00,6
1007.00,6
1006.00,6
1005.00,6
1004.00,7
1003.00,6
1002.00,6
1001.00,6
1000.00,5
999.00,5
998.00,5
997.00,5
996.00,5
995.00,5
994.00,5
993.00,5
992.00,6
991.00,6
990.00,7
989.00,7
988.00,8
987.00,8
986.00,9
985.00,11
984.00,13
983.00,15
982.00,16
981.00,16
980.00,16
979.00,16
978.00,16
977.00,16
976.00,16
975.00,15
974.00,15
973.00,15
972.00,15
971.00,15
970.00,15
969.00,15
968.00,15
967.00,15
966.00,14
965.00,14
964.00,14
963.00,13
962.00,13
961.00,12
960.00,12
959.00,12
958.00,11
957.00,11
956.00,11
955.00,11
954.00,11
953.00,11
952.00,11
951.00,10
950.00,10
949.00,10
948.00,10
947.00,10
946.00,10
945.00,11
944.00,11
943.00,12
942.00,12
941.00,13
940.00,14
939.00,15
938.00,16
937.00,16
936.00,16
935.00,16
934.00,16
933.00,15
932.00,15
931.00,14
930.00,14
929.00,14
928.00,13
927.00,13
926.00,13
925.00,14
924.00,15
923.00,15
922.00,16
921.00,16
920.00,16
919.00,16
918.00,16
917.00,16
916.00,17
915.00,17
914.00,18
913.00,18
912.00,18
911.00,17
910.00,17
909.00,16
908.00,16
907.00,16
906.00,16
905.00,17
904.00,16
903.00,16
902.00,16
901.00,16
900.00,15
899.00,15
898.00,15
897.00,14
896.00,14
895.00,14
894.00,13
893.00,13
892.00,13
891.00,13
890.00,13
889.00,12
888.00,12
887.00,12
886.00,12
885.00,12
884.00,12
883.00,12
882.00,12
881.00,13
880.00,13
879.00,13
878.00,14
877.00,16
876.00,18
875.00,20
874.00,23
873.00,26
872.00,30
871.00,33
870.00,37
869.00,38
868.00,38
867.00,38
866.00,38
865.00,37
864.00,37
863.00,37
862.00,37
861.00,36
860.00,35
859.00,34
858.00,33
857.00,31
856.00,30
855.00,29
854.00,29
853.00,28
852.00,27
851.00,26
850.00,25
849.00,24
848.00,23
847.00,21
846.00,20
845.00,19
844.00,17
843.00,16
842.00,16
841.00,15
840.00,14
839.00,13
838.00,13
837.00,13
836.00,13
835.00,13
834.00,13
833.00,13
832.00,13
831.00,12
830.00,12
829.00,12
828.00,12
827.00,12
826.00,12
825.00,12
824.00,12
823.00,11
822.00,11
821.00,11
820.00,11
819.00,11
818.00,11
817.00,11
816.00,11
815.00,11
814.00,11
813.00,11
812.00,10
811.00,9
810.00,8
809.00,7
808.00,7
807.00,6
806.00,6
805.00,6
804.00,6
803.00,6
802.00,6
801.00,6
800.00,5
799.00,5
798.00,5
797.00,5
796.00,5
795.00,5
794.00,5
793.00,5
792.00,5
791.00,5
790.00,5
789.00,5
788.00,5
787.00,5
786.00,5
785.00,6
784.00,8
783.00,10
782.00,13
781.00,14
780.00,15
779.00,15
778.00,16
777.00,16
776.00,16
775.00,15
774.00,15
773.00,15
772.00,15
771.00,14
770.00,13
769.00,12
768.00,12
767.00,11
766.00,9
765.00,8
764.00,6
763.00,5
762.00,4
761.00,4
760.00,4
759.00,4
758.00,4
757.00,3
756.00,3
755.00,3
754.00,2
753.00,2
752.00,3
751.00,3
750.00,3
749.00,3
748.00,3
747.00,3
746.00,3
745.00,3
744.00,2
743.00,2
742.00,1
741.00,1
740.00,0
739.00,-0
738.00,-0
737.00,-0
736.00,-1
735.00,-1
734.00,-1
733.00,-1
732.00,-1
731.00,-1
730.00,-1
729.00,-1
728.00,-1
727.00,-1
726.00,-1
725.00,0
724.00,1
723.00,2
722.00,2
721.00,2
720.00,2
719.00,2
718.00,3
717.00,3
716.00,3
715.00,3
714.00,4
713.00,4
712.00,4
711.00,4
710.00,4
709.00,4
708.00,3
707.00,3
706.00,3
705.00,3
704.00,2
703.00,2
702.00,2
701.00,2
700.00,2
699.00,2
698.00,2
697.00,1
696.00,1
695.00,0
694.00,0
693.00,-0
692.00,-0
691.00,-0
690.00,-0
689.00,-0
688.00,-1
687.00,-1
686.00,-1
685.00,-1
684.00,-1
683.00,-1
682.00,-0
681.00,-0
680.00,-1
679.00,-1
678.00,-1
677.00,-1
676.00,-1
675.00,-1
674.00,-1
673.00,-1
672.00,-0
671.00,-1
670.00,-1
669.00,-1
668.00,-1
667.00,-1
666.00,-1
665.00,-1
664.00,-1
663.00,-1
662.00,-1
661.00,-1
660.00,-2
659.00,-2
658.00,-2
657.00,-2
656.00,-2
655.00,-2
654.00,-2
653.00,-2
652.00,-1
651.00,-1
650.00,-1
649.00,-0
648.00,1
647.00,3
646.00,6
645.00,8
644.00,10
643.00,10
642.00,10
641.00,10
640.00,10
639.00,10
638.00,10
637.00,9
636.00,9
635.00,9
634.00,9
633.00,8
632.00,8
631.00,7
630.00,6
629.00,6
628.00,6
627.00,6
626.00,6
625.00,5
624.00,4
623.00,3
622.00,1
621.00,-0
620.00,-1
619.00,-1
618.00,-1
617.00,-1
616.00,-1
615.00,-1
614.00,-1
613.00,-1
612.00,-1
611.00,-1
610.00,-1
609.00,-1
608.00,-1
607.00,-1
606.00,-2
605.00,-2
604.00,-2
603.00,-2
602.00,-2
601.00,-3
600.00,-4
599.00,-5
598.00,-5
597.00,-6
596.00,-6
595.00,-7
594.00,-7
593.00,-7
592.00,-7
591.00,-7
590.00,-7
589.00,-7
588.00,-8
587.00,-8
586.00,-7
585.00,-7
584.00,-7
583.00,-7
582.00,-8
581.00,-8
580.00,-8
579.00,-8
578.00,-8
577.00,-7
576.00,-7
575.00,-7
574.00,-7
573.00,-6
572.00,-6
571.00,-6
570.00,-6
569.00,-6
568.00,-6
567.00,-6
566.00,-6
565.00,-7
564.00,-7
563.00,-7
562.00,-6
561.00,-6
560.00,-6
559.00,-6
558.00,-6
557.00,-6
556.00,-5
555.00,-5
554.00,-5
553.00,-5
552.00,-5
551.00,-5
550.00,-5
549.00,-5
548.00,-6
547.00,-6
546.00,-6
545.00,-6
544.00,-6
543.00,-6
542.00,-6
541.00,-6
540.00,-6
539.00,-7
538.00,-7
537.00,-8
536.00,-8
535.00,-8
534.00,-8
533.00,-8
532.00,-8
531.00,-8
530.00,-8
529.00,-9
528.00,-9
527.00,-9
526.00,-9
525.00,-9
524.00,-8
523.00,-8
522.00,-8
521.00,-8
520.00,-7
519.00,-6
518.00,-6
517.00,-5
516.00,-5
515.00,-5
514.00,-5
513.00,-5
512.00,-5
511.00,-6
510.00,-6
509.00,-7
508.00,-8
507.00,-8
506.00,-8
505.00,-8
504.00,-7
503.00,-7
502.00,-7
501.00,-7
500.00,-7
499.00,-7
498.00,-7
497.00,-7
496.00,-8
495.00,-8
494.00,-8
493.00,-9
492.00,-9
491.00,-9
490.00,-8
489.00,-8
488.00,-8
487.00,-9
486.00,-9
485.00,-9
484.00,-10
483.00,-10
482.00,-10
481.00,-9
480.00,-9
479.00,-8
478.00,-8
477.00,-8
476.00,-8
475.00,-8
474.00,-8
473.00,-7
472.00,-7
471.00,-7
470.00,-6
469.00,-6
468.00,-6
467.00,-6
466.00,-6
465.00,-6
464.00,-5
463.00,-5
462.00,-5
461.00,-5
460.00,-4
459.00,-4
458.00,-4
457.00,-4
456.00,-4
455.00,-4
454.00,-4
453.00,-5
452.00,-5
451.00,-5
450.00,-5
449.00,-5
448.00,-5
447.00,-5
446.00,-5
445.00,-5
444.00,-4
443.00,-4
442.00,-3
441.00,-2
440.00,-1
439.00,-1
438.00,-2
437.00,-3
436.00,-3
435.00,-4
434.00,-4
433.00,-3
432.00,-2
431.00,-1
430.00,0
429.00,1
428.00,1
427.00,1
426.00,1
425.00,1
424.00,1
423.00,2
422.00,2
421.00,2
420.00,2
419.00,2
418.00,2
417.00,2
416.00,1
415.00,1
414.00,1
413.00,2
412.00,2
411.00,2
410.00,2
409.00,2
408.00,1
407.00,1
406.00,1
405.00,1
404.00,1
403.00,2
402.00,2
401.00,3
400.00,3
399.00,3
398.00,3
397.00,2
396.00,2
395.00,2
394.00,3
393.00,3
392.00,4
391.00,4
390.00,4
389.00,4
388.00,4
387.00,4
386.00,4
385.00,4
384.00,4
383.00,4
382.00,4
381.00,4
380.00,4
379.00,4
378.00,4
377.00,4
376.00,4
375.00,4
374.00,4
373.00,4
372.00,4
371.00,4
370.00,4
369.00,4
368.00,4
367.00,3
366.00,3
365.00,3
364.00,3
363.00,3
362.00,3
361.00,3
360.00,3
359.00,3
358.00,3
357.00,4
356.00,4
355.00,4
354.00,4
353.00,4
352.00,4
351.00,4
350.00,4
349.00,4
348.00,4
347.00,4
346.00,4
345.00,5
344.00,6
343.00,7
342.00,8
341.00,9
340.00,10
339.00,10
338.00,10
337.00,10
336.00,10
335.00,10
334.00,10
333.00,9
332.00,9
331.00,9
330.00,9
329.00,9
328.00,9
327.00,9
326.00,9
325.00,9
324.00,9
323.00,9
322.00,9
321.00,9
320.00,8
319.00,8
318.00,8
317.00,8
316.00,8
315.00,8
314.00,8
313.00,7
312.00,7
311.00,7
310.00,7
309.00,7
308.00,7
307.00,7
306.00,7
305.00,8
304.00,8
303.00,8
302.00,8
301.00,8
300.00,7
299.00,7
298.00,6
297.00,6
296.00,5
295.00,6
294.00,7
293.00,8
292.00,9
291.00,10
290.00,9
289.00,9
288.00,8
287.00,8
286.00,7
285.00,8
284.00,8
283.00,9
282.00,10
281.00,10
280.00,10
279.00,10
278.00,10
277.00,10
276.00,10
275.00,10
274.00,10
273.00,10
272.00,10
271.00,10
270.00,10
269.00,10
268.00,10
267.00,10
266.00,10
265.00,10
264.00,10
263.00,10
262.00,10
261.00,11
260.00,11
259.00,11
258.00,11
257.00,11
256.00,11
255.00,11
254.00,11
253.00,11
252.00,11
251.00,12
250.00,12
249.00,12
248.00,12
247.00,12
246.00,12
245.00,13
244.00,14
243.00,16
242.00,17
241.00,19
240.00,20
239.00,20
238.00,20
237.00,20
236.00,20
235.00,20
234.00,20
233.00,20
232.00,19
231.00,19
230.00,19
229.00,18
228.00,17
227.00,17
226.00,16
225.00,15
224.00,15
223.00,15
222.00,15
221.00,15
220.00,15
219.00,16
218.00,16
217.00,16
216.00,16
215.00,16
214.00,17
213.00,18
212.00,19
211.00,20
210.00,21
209.00,21
208.00,22
207.00,22
206.00,22
205.00,23
204.00,23
203.00,24
202.00,24
201.00,25
200.00,26
199.00,26
198.00,26
197.00,26
196.00,25
195.00,25
194.00,25
193.00,25
192.00,26
191.00,26
190.00,27
189.00,28
188.00,29
187.00,30
186.00,30
185.00,31
184.00,32
183.00,33
182.00,34
181.00,34
180.00,35
179.00,36
178.00,36
177.00,37
176.00,37
175.00,38
174.00,38
173.00,40
172.00,42
171.00,44
170.00,46
169.00,48
168.00,50
167.00,50
166.00,50
165.00,50
164.00,50
163.00,50
162.00,52
161.00,54
160.00,56
159.00,58
158.00,60
157.00,62
156.00,64
155.00,66
154.00,67
153.00,69
152.00,70
151.00,71
150.00,72
149.00,73
148.00,74
147.00,79
146.00,85
145.00,92
144.00,99
143.00,106
142.00,110
141.00,112
140.00,113
139.00,115
138.00,117
137.00,119
136.00,122
135.00,126
134.00,130
133.00,134
132.00,138
131.00,142
130.00,147
129.00,152
128.00,158
127.00,163
126.00,165
125.00,166
124.00,168
123.00,169
122.00,170
121.00,172
120.00,174
119.00,176
118.00,178
117.00,179
116.00,181
115.00,183
114.00,185
113.00,186
112.00,188
111.00,191
110.00,198
109.00,205
108.00,212
107.00,219
106.00,225
105.00,229
104.00,232
103.00,235
102.00,238
101.00,238
100.00,237
