Unnamed: 0,Unnamed: 1
blue brown bri bri boy board,
,
,
Raman Shift / cm-1,INT
3200,-81.2835416755229
3199,-64.7530269839388
3198,-155.614293312502
3197,-169.024897212467
3196,-118.689722216291
3195,-106.763607145479
3194,-105.422752333236
3193,-100.857994495024
3192,-114.695053763132
3191,-152.049708554426
3190,-75.050358429465
3189,50.0923491017483
3188,108.559437898908
3187,153.967396832519
3186,199.498833832446
3185,224.380687756179
3184,230.971856455783
3183,262.550227056262
3182,297.843331033597
3181,297.223407126613
3180,279.899300121296
3179,238.567912467775
3178,219.169195442372
3177,216.832283390627
3176,186.602301207433
3175,154.20782609728
3174,150.367921378621
3173,125.3357205319
3172,48.5746244813903
3171,58.8598495633623
3170,135.20303126858
3169,154.349247987626
3168,149.808016792812
3167,117.133675070877
3166,69.3924297721929
3165,-2.24969027171336
3164,5.66655001322063
3163,76.6571600321178
3162,74.2232843994539
3161,38.5222262109627
3160,-28.2449740724768
3159,-79.5849933104757
3158,-78.1983898657722
3157,-44.4544829603574
3156,24.6632704130346
3155,48.2301054672142
3154,49.1219923411899
3153,50.8945214544922
3152,52.8979833166737
3151,54.8167106050978
3150,55.4481680941046
3149,54.4209567694697
3148,162.355269425083
3147,354.473366424849
3146,539.545836891837
3145,736.903050585144
3144,1028.86864979201
3143,1126.54220313104
3142,643.584337064193
3141,422.119810856637
3140,624.597863909471
3139,500.210398365079
3138,197.475779561739
3137,123.147072507889
3136,123.132652697187
3135,122.554251553289
3134,129.579301701406
3133,156.212300586774
3132,149.650258098741
3131,95.6155987645109
3130,74.6167113431301
3129,74.2489366789148
3128,73.6332141262897
3127,73.206816871032
3126,74.7196925594047
3125,76.3923342398097
3124,77.3988575569814
3123,97.5352850522293
3122,148.941003865268
3121,145.222197415502
3120,93.9302574120946
3119,78.8624993743455
3118,77.2430818381808
3117,56.5023066428274
3116,35.1280397044589
3115,32.7108898895818
3114,47.0504290612741
3113,96.4768283313423
3112,135.129949006009
3111,157.454844636128
3110,161.44702960784
3109,149.389619358424
3108,94.9118318085035
3107,37.2665532339888
3106,73.055769329733
3105,115.06884927289
3104,99.0787363221152
3103,70.3930692200278
3102,25.4002677134098
3101,14.728869080391
3100,60.252874702315
3099,129.828287543756
3098,217.688087182696
3097,204.383824361003
3096,143.30041260911
3095,160.815430442076
3094,206.459691905869
3093,268.351887525714
3092,320.64667156933
3091,324.649760289396
3090,287.020869936143
3089,161.865185108966
3088,84.3577995042514
3087,83.8079777799449
3086,83.9100118297025
3085,83.7435763755157
3084,83.2350743797982
3083,82.5799598814812
3082,82.5729446902503
3081,82.780634271778
3080,82.9904045332615
3079,83.3137136086725
3078,84.0055746361003
3077,93.2217879707433
3076,129.478848855599
3075,149.269856152938
3074,130.532634099808
3073,118.852393429937
3072,118.271492356212
3071,138.176419863485
3070,175.803095412296
3069,177.450751220251
3068,158.654010921613
3067,139.551356354775
3066,124.126712712299
3065,149.100367012247
3064,173.900776545588
3063,116.086074770419
3062,57.2212261388767
3061,65.5407092426336
3060,79.0891427104565
3059,80.0943930137978
3058,79.9013106302854
3057,79.0064155364205
3056,85.0457175466651
3055,103.526909984751
3054,121.396472121637
3053,138.062247924009
3052,136.219365127903
3051,118.484199476927
3050,143.392210445866
3049,193.59693463722
3048,208.753220120086
3047,207.982452280849
3046,207.161418613558
3045,203.754383253197
3044,176.146891290751
3043,149.304183050385
3042,172.047281837528
3041,199.514638268272
3040,202.006386843171
3039,201.251974587632
3038,200.624366560218
3037,199.911518040183
3036,198.912489893232
3035,197.936742318652
3034,197.072091010462
3033,196.173024736607
3032,195.1936068719
3031,200.111414962925
3030,214.30350566159
3029,208.724224729208
3028,177.121744249419
3027,154.093459692968
3026,139.082696889022
3025,195.495917442544
3024,314.013621976085
3023,404.708595456619
3022,472.141193365513
3021,374.442169163898
3020,190.650181752387
3019,167.63938843799
3018,228.520917959323
3017,357.752385517208
3016,497.207402008415
3015,427.04617907011
3014,294.521982725068
3013,272.559311493931
3012,281.105287401081
3011,248.929178204644
3010,213.256432790854
3009,227.876199439411
3008,250.958818690897
3007,253.877052488439
3006,252.664678086163
3005,251.454790735771
3004,248.700413115193
3003,235.819129991587
3002,215.417904593124
3001,166.422458584631
3000,130.432971766325
2999,171.358632722044
2998,210.960010691696
2997,202.887626921552
2996,184.866155788204
2995,148.308203859707
2994,112.221271927436
2993,85.7428542198416
2992,74.3075049406139
2991,117.741314072129
2990,156.960698963229
2989,159.813669035623
2988,149.757135164316
2987,104.373212208565
2986,74.3468492050187
2985,114.393036205304
2984,151.837391829212
2983,154.345895360213
2982,153.466376546404
2981,152.45214312888
2980,151.451670035297
2979,150.547021261913
2978,149.65429426129
2977,148.770429574271
2976,154.368345166858
2975,185.358696281064
2974,212.480985513367
2973,214.032369397574
2972,212.902758866827
2971,211.775526924779
2970,210.650670414757
2969,209.528186181998
2968,208.408071073653
2967,207.290321938775
2966,206.174935628339
2965,205.061908995216
2964,203.951238894195
2963,202.842922181974
2962,201.736955717159
2961,200.633336360265
2960,199.53206097372
2959,198.433126421864
2958,196.313913658594
2957,186.308155326414
2956,176.5592643352
2955,182.473145800905
2954,191.051755406014
2953,191.888501282584
2952,189.429237126023
2951,172.471973019567
2950,151.62426537646
2949,130.476820049809
2948,110.852968506796
2947,119.242694623775
2946,138.177995097706
2945,150.179688947719
2944,158.780054346888
2943,161.120374480801
2942,160.107696287877
2941,159.117755850957
2940,158.172165599561
2939,162.813811302665
2938,171.249058529828
2937,179.558796646872
2936,188.033868416105
2935,170.533800784861
2934,122.459076297169
2933,94.3614315879518
2932,93.484610022267
2931,95.9241400390001
2930,104.288463448376
2929,112.715526916355
2928,120.834645929334
2927,131.00045248937
2926,147.784460873274
2925,159.423232078504
2924,151.448128703937
2923,143.054090937511
2922,141.196037923573
2921,139.252955930328
2920,130.954440968454
2919,122.875675349702
2918,127.392659494182
2917,134.653454162539
2916,135.643191005498
2915,134.258244013249
2914,121.307663850254
2913,103.821746569956
2912,96.7652681922011
2911,95.9794239482546
2910,109.32949454786
2909,133.139057981645
2908,137.807036361613
2907,120.318738444533
2906,109.504361298731
2905,108.580008234587
2904,107.752274076003
2903,106.892992189731
2902,106.043083915241
2901,105.227135018118
2900,104.418223879958
2899,103.646106015726
2898,104.664379726844
2897,117.059770431949
2896,130.030313856991
2895,126.125073324745
2894,117.579578157058
2893,109.052333902546
2892,100.682315748026
2891,106.312450503246
2890,120.879509293395
2889,119.258028186373
2888,103.42087422896
2887,84.7509475237947
2886,61.7371245349495
2885,47.5888072153468
2884,53.679478278424
2883,60.3901283138639
2882,66.9741067449613
2881,67.4475786169097
2880,34.8700863571915
2879,1.24309337297515
2878,-5.37046451264803
2877,-3.85914018673852
2876,37.7256933161698
2875,93.2482475439707
2874,122.109334754518
2873,135.13016217644
2872,137.805385875833
2871,129.892613840885
2870,127.017372111197
2869,132.89838336163
2868,136.933971343586
2867,136.159051188634
2866,137.420719244529
2865,148.812376284893
2864,159.417966026128
2863,154.845006594639
2862,147.651418905824
2861,149.782591968198
2860,155.101155169421
2859,156.444692726796
2858,155.433039241317
2857,154.356712533795
2856,153.212060347101
2855,154.195433647944
2854,159.547377484171
2853,163.644746185891
2852,162.915673540748
2851,161.059154876344
2850,154.405686334117
2849,146.985911863152
2848,139.647826882112
2847,132.433942539951
2846,129.243117633467
2845,128.205159564377
2844,124.178049810148
2843,116.943887965761
2842,109.81181964545
2841,102.781437379489
2840,97.0445713665182
2839,95.7869965480006
2838,94.8910947420241
2837,93.9846889064896
2836,92.5702133095783
2835,82.892472406324
2834,70.5403500152679
2833,64.8406130252368
2832,64.0489367182931
2831,67.877572367464
2830,78.7071014489811
2829,88.0710784640332
2828,93.2307261761186
2827,95.6698137213878
2826,85.3212043430885
2825,74.331593939072
2824,79.8046086471694
2823,89.9994727072301
2822,96.8867948722749
2821,101.587134510545
2820,98.9478751957899
2819,86.8859331014522
2818,80.9348160025413
2817,90.209813475775
2816,100.131876513212
2815,110.194256976163
2814,119.376242148655
2813,116.902644333386
2812,110.587657318869
2811,104.204344015465
2810,97.9464876564218
2809,95.9149200747515
2808,100.314500014394
2807,103.401015578452
2806,102.644664274074
2805,101.057470346863
2804,95.6440872509064
2803,89.7563079864859
2802,87.3648401714162
2801,86.4890578267634
2800,88.2904916231706
2799,92.4603854206919
2798,93.5714606085981
2797,87.751600998372
2796,84.1505949382533
2795,91.8276842483067
2794,100.346940574909
2793,101.775467730185
2792,100.820140427904
2791,94.0406122799503
2790,83.3727448430647
2789,76.2113085184299
2788,75.2025504268732
2787,76.1375377589979
2786,84.2883937154853
2785,92.9436049494471
2784,101.620515175665
2783,110.238148637389
2782,113.22533773951
2781,112.378085806808
2780,111.489120538537
2779,110.530444916213
2778,111.339227681921
2777,119.018184901736
2776,125.957850027306
2775,115.602639699311
2774,100.466137788359
2773,96.8870819333945
2772,100.350793790263
2771,103.845960783565
2770,107.448466631053
2769,107.359408901064
2768,90.482699862719
2767,72.2060168371095
2766,67.1164162122248
2765,66.3208736991755
2764,70.4889754192698
2763,78.5134592203053
2762,82.447088966044
2761,77.5031318103428
2760,71.1862733213015
2759,58.3676159119482
2758,45.0204130892065
2757,46.2416296018852
2756,54.1048254417625
2755,58.1852062932852
2754,57.3552350061511
2753,53.4772574058078
2752,40.5527490165637
2751,28.1103923902335
2750,25.1175646133697
2749,24.5331335137081
2748,36.4620082915299
2747,56.55931307702
2746,70.9670140237905
2745,74.5182838954945
2744,77.2110894507681
2743,76.8213102315652
2742,76.7908360128655
2741,98.9057024540366
2740,130.781645540006
2739,139.702587352852
2738,118.454292945577
2737,101.973275358086
2736,103.307845232985
2735,103.122078319983
2734,59.8462469695286
2733,3.32286237475596
2732,-5.19378540951211
2731,29.774509677371
2730,54.422713659075
2729,51.280535103433
2728,46.9222417035405
2727,45.4673401336402
2726,44.7309063430152
2725,48.369630529393
2724,55.0630070994356
2723,59.7628427046559
2722,59.1285612042467
2721,58.9582465916834
2720,64.5163910859318
2719,71.2315558455672
2718,73.3852525771066
2717,72.6192627059406
2716,76.641700110767
2715,90.3774287494959
2714,101.663714251093
2713,96.4099838262144
2712,88.261149145392
2711,79.9080788762124
2710,71.5805316568538
2709,65.6929827278083
2708,64.7702502945204
2707,64.0013450100042
2706,63.2216029583667
2705,62.4662038692024
2704,63.8345322720411
2703,66.6342143675082
2702,71.6041596272788
2701,81.4347195719816
2700,88.8500918767288
2699,77.3864946347471
2698,62.6205676746372
2697,55.9619472160883
2696,55.0473350438775
2695,56.0760464027341
2694,61.9625190366958
2693,67.4107989657623
2692,67.8881057083048
2691,67.1068215834392
2690,66.3757619571375
2689,65.689743810403
2688,64.2215614908279
2687,60.1867831726516
2686,55.7506953687291
2685,48.9883248167574
2684,41.4602044326304
2683,37.116831359292
2682,36.3889818300267
2681,36.7669083979897
2680,42.1162081982727
2679,47.5843106087883
2678,42.3139640015141
2677,31.6944950846089
2676,23.4126057958452
2675,19.4045464520257
2674,15.826589469579
2673,14.6420862779953
2672,13.9703460879521
2671,13.3041822878553
2670,12.6403474629934
2669,12.7581830733502
2668,15.0688568213164
2667,17.6540184892081
2666,22.6395189143814
2665,28.4183468474964
2664,32.6332607753209
2663,35.026079360263
2662,38.4242726758771
2661,46.3971440676279
2660,54.9515005583484
2659,59.2367709951866
2658,60.8445865193983
2657,61.0781821618804
2656,57.6696796447778
2655,54.4451102303528
2654,52.978232676382
2653,51.9893847617792
2652,51.1593621553806
2651,50.5055335066025
2650,49.8127384713866
2649,48.9477561189773
2648,48.0637950909728
2647,47.2882928631782
2646,46.5890279708413
2645,45.8954206592247
2644,45.2129902054771
2643,44.9428321115519
2642,50.9632816503528
2641,58.8692386477557
2640,63.2452617260429
2639,62.4741542808586
2638,61.6295646588983
2637,60.6108816084007
2636,59.5467660713303
2635,46.0533409743418
2634,22.7304405906776
2633,3.95863461254755
2632,1.60399700455521
2631,1.14300777721783
2630,8.12952282611139
2629,18.4624019903322
2628,25.4347872594966
2627,25.1038778661815
2626,25.6033216997435
2625,40.2433401476275
2624,58.5634392654579
2623,69.8521265307789
2622,71.7590131746458
2621,72.031872063546
2620,62.4219201221014
2619,51.0013931933129
2618,45.197284295282
2617,44.3327986490496
2616,43.9565505592907
2615,45.7267999973422
2614,47.6841597618646
2613,46.2529886320143
2612,42.8294051461755
2611,38.8262676207077
2610,33.0724529137601
2609,27.3672845868733
2608,25.1153126371547
2607,24.356689059744
2606,24.4076338429091
2605,26.2293030244605
2604,27.9617486863087
2603,27.8059616100799
2602,27.0786902654221
2601,26.3812026927526
2600,25.7287711532867
2599,24.7137468251169
2598,19.914449834882
2597,14.210846214885
2596,11.7402904653053
2595,13.4355026993336
2594,14.3000089718872
2593,9.66281910046549
2592,4.12980195271225
2591,10.3463201279916
2590,29.3011360899223
2589,41.2269483561549
2588,15.1596013697228
2587,-16.2312356472863
2586,-29.3199781317931
2585,-25.0219329819855
2584,-18.8512580239054
2583,-3.8034671121956
2582,11.9204015778592
2581,15.9783695741015
2580,10.544699399486
2579,3.4576101284766
2578,-10.5989572718102
2577,-25.0066676382038
2576,-31.4571631294655
2575,-32.0557801555114
2574,-27.0521088474096
2573,2.44248451633416
2572,34.2320237904656
2571,39.6036472029532
2570,27.3674128170484
2569,15.9843459352858
2568,8.13678430607021
2567,0.576038019756268
2566,1.21340732083893
2565,7.21862071024407
2564,13.358981932821
2563,19.4833377572387
2562,25.3923496288666
2561,27.4861296267476
2560,26.7619792426191
2559,25.6638087500586
2558,22.8692152523226
2557,19.8496686988708
2556,22.0209439679893
2555,28.0673219260615
2554,32.5682102711474
2553,28.8866442907248
2552,24.1752429391779
2551,21.5991176137597
2550,20.9586941713324
2549,21.4473096928835
2548,28.1806769731223
2547,35.8185125195015
2546,43.6232191523017
2545,51.389535471817
2544,58.4872151229328
2543,62.5896341263613
2542,66.1879874140209
2541,67.8446804995429
2540,67.0005657326767
2539,66.4707381206175
2538,69.2871105630977
2537,72.9439256721248
2536,74.0548433536343
2535,71.1753071841595
2534,68.3592374675667
2533,67.1734343299149
2532,66.5515918421314
2531,65.8922575233041
2530,65.1350821493063
2529,64.3794709135601
2528,63.6871945413397
2527,63.0173651191818
2526,61.8839679272906
2525,59.3792348832102
2524,56.7617314864532
2523,51.6335120478078
2522,44.918410001282
2521,39.0432036555057
2520,37.5622640301416
2519,36.6722921302667
2518,35.8448526455821
2517,35.0747247546065
2516,34.1338737003018
2515,31.8464330466089
2514,29.2264765463366
2513,26.6428035132916
2512,24.1615552409816
2511,21.7829871476343
2510,20.6707598304882
2509,19.956147641834
2508,20.3576092122077
2507,23.5302624919769
2506,26.8225457848169
2505,30.0044642166725
2504,33.05976721052
2503,36.0372398884975
2502,39.1148758414037
2501,42.1885056154816
2500,44.2994102137415
2499,45.5742414554875
2498,46.6622640427814
2497,46.3579686187817
2496,45.7674590563673
2495,45.1805896276279
2494,44.5985939035963
2493,44.0203364458906
2492,43.4819176139159
2491,42.9602867058997
2490,41.5858709697686
2489,37.3820289625516
2488,32.9177096740427
2487,32.8165546774426
2486,35.6246890644452
2485,38.4358620380318
2484,41.3606682211133
2483,44.2925789605521
2482,44.1927058900601
2481,39.9310534602081
2480,36.0117923964302
2479,37.1510508831831
2478,39.9460550176033
2477,41.9032124126903
2476,41.5322166609424
2475,40.967957722849
2474,34.0745905335794
2473,23.198281741384
2472,13.4021632026331
2471,11.187986289819
2470,10.6106143453909
2469,10.6292301383881
2468,11.7433445755602
2467,12.9174833571012
2466,15.2279595052923
2465,18.0419617834827
2464,20.2292339267077
2463,19.9560681263498
2462,19.4302246521541
2461,19.8578417704715
2460,21.2630796346634
2459,22.8873538581348
2458,26.7567130328715
2457,31.1998075853689
2456,33.7307653629102
2455,31.6984653694826
2454,29.4327470682359
2453,29.1063420048632
2452,30.1616494331327
2451,30.6814214749687
2450,27.5527138357626
2449,23.7423798618332
2448,22.7502241174371
2447,26.6066615517889
2446,30.4404889367976
2445,30.3764843444062
2444,28.1522984416564
2443,26.4009928274428
2442,27.0280103730273
2441,27.9842627700076
2440,28.3340164256933
2439,27.8519861645361
2438,27.363211030111
2437,26.7937455839518
2436,26.1931556681205
2435,25.0417646631761
2434,21.6166794896365
2433,18.0461947657868
2432,12.4866751124469
2431,4.09294239528782
2430,-4.15860441064949
2429,-10.1174721338088
2428,-15.0978781020882
2427,-19.5262334135832
2426,-21.7810513066716
2425,-23.771038712817
2424,-25.0623437201381
2423,-25.5161863572329
2422,-25.9145133388051
2421,-25.2587232143703
2420,-24.1905832392649
2419,-23.70180356918
2418,-25.3652407158848
2417,-27.2386312180443
2416,-23.9581351682156
2415,-13.7874995667343
2414,-3.73895532667323
2413,10.3982261172955
2412,26.5889047422925
2411,35.0737636622075
2410,10.7373348004107
2409,-17.5225372310931
2408,-35.3984216971297
2407,-35.9700120382731
2406,-36.1134947386425
2405,-27.597201971238
2404,-14.6223860716737
2403,-4.72007307061934
2402,-11.2197151952845
2401,-20.540561009803
2400,-25.8195380069081
2399,-23.5159387898657
2398,-20.9883717407049
2397,-13.9670218025165
2396,-4.3793955502886
2395,4.30694519120879
2394,5.53523952519556
2393,4.95700802877972
2392,4.39588219308884
2391,3.87032493036994
2390,3.35711820295922
2389,9.281037129744
2388,21.9892845543501
2387,33.487937756403
2386,29.8855337461839
2385,20.8442289169917
2384,13.1786785652963
2383,10.5465771402694
2382,8.42705710932629
2381,7.93927856602974
2380,9.94655334531341
2379,11.9422072357666
2378,10.5375799627879
2377,7.31077991602635
2376,4.33051633006834
2375,3.37186241742579
2374,2.83820659626695
2373,2.01853262077064
2372,0.363383723469056
2371,-1.37351152734549
2370,-3.11568550804334
2369,-4.90195974438932
2368,-6.67754213031736
2367,-8.34066953977381
2366,-9.95845991528061
2365,-11.7624963080622
2364,-14.707600596664
2363,-17.7478155545163
2362,-19.9388237609769
2361,-20.3262764367591
2360,-20.6396208673403
2359,-18.8925751657987
2358,-15.3579493881674
2357,-11.8705458504469
2356,-10.3237343273298
2355,-9.39986613228496
2354,-8.10684532078763
2353,-4.98822025055364
2352,-1.66046859573264
2351,1.65424030901881
2350,4.96434467482595
2349,8.24973707315198
2348,9.66311309484365
2347,9.52438367655098
2346,9.31682660985994
2345,7.84796948342648
2344,5.94528448736433
2343,4.07429987190287
2342,2.3217384872957
2341,0.592451857720691
2340,-0.360782289300216
2339,0.480535962330511
2338,1.383731968808
2337,1.5876731582225
2336,1.1107724819507
2335,0.596918854659647
2334,-0.751111997867329
2333,-2.45166368537776
2332,-3.72753291900341
2331,-2.09645313966071
2330,0.0448387642652511
2329,2.79297815235551
2328,7.23262147100162
2327,11.6389910752187
2326,14.1528068692724
2325,13.8652306848619
2324,13.5533021909751
2323,13.2378959321582
2322,12.9207450276895
2321,12.5304545207781
2320,11.3139881914169
2319,9.83374625599226
2318,8.54534399225752
2317,8.17571902922243
2316,7.91850991428195
2315,8.38106944739427
2314,10.3641070116689
2313,12.3376364994968
2312,13.8544129875588
2311,14.823185305107
2310,15.7228557240545
2309,14.8855070231884
2308,13.1358189576175
2307,11.5994531844154
2306,11.9269199257436
2305,12.6976831071922
2304,12.4899053271161
2303,8.04992170512718
2302,3.22464447791801
2301,0.0455479373523679
2300,0.822266940301937
2299,1.73164301045379
2298,2.11346801668665
2297,1.84798884373687
2296,1.59380694328733
2295,2.03793316169094
2294,2.88560124768189
2293,3.76601873425111
2292,5.55790537935991
2291,7.6165999327475
2290,9.32156417198475
2289,9.36014956504754
2288,9.13411423097071
2287,9.20184467256456
2286,10.1606378806569
2285,11.1748150258858
2284,10.7349502898146
2283,8.00062775675117
2282,5.25041568164994
2281,3.1794854749776
2280,1.59040993932673
2279,0.0340773656150192
2278,0.134931798114767
2277,0.963062049415391
2276,1.64470457817948
2275,0.685287897793428
2274,-0.715351491039352
2273,-1.92483784908823
2272,-2.3361117027329
2271,-2.63829489954228
2270,-2.9437111036928
2269,-3.25557966956116
2268,-3.56717354351395
2267,-3.84023641517048
2266,-4.04082198732811
2265,-4.23811975072895
2264,-4.95336167916998
2263,-6.20640163631069
2262,-7.44192299266913
2261,-7.9155583435575
2260,-8.00208351870346
2259,-8.05986946240645
2258,-7.61655822886519
2257,-7.00369767341267
2256,-6.17102840551352
2255,-3.57515069097958
2254,-0.63718163792908
2253,1.8095665264849
2252,1.89312768130644
2251,1.6969686774328
2250,1.66672412312335
2249,2.0723148629623
2248,2.49780629749452
2247,3.10640515657951
2246,4.00631032796335
2245,4.88307454005876
2244,5.79431522353127
2243,6.74177284243268
2242,7.68949369721208
2241,8.69588460195855
2240,9.72170878554185
2239,10.6809299277849
2238,10.8544139674063
2237,10.7089428420853
2236,10.4890404236752
2235,9.38120160910167
2234,8.01890639849683
2233,6.75650608393234
2232,6.32667547264553
2231,6.05812746218121
2230,5.78478486437408
2229,5.48950098833189
2228,5.19259631225798
2227,5.44450606201323
2226,7.32213623742838
2225,9.30462018228705
2224,9.95239378374232
2223,7.65853571639166
2222,5.26914048002851
2221,2.8522761339038
2220,0.324753443765853
2219,-2.19423563806177
2218,-1.19511615049966
2217,3.02279306670099
2216,7.19876279406048
2215,6.87241771257832
2214,3.55754859308267
2213,0.363225213367512
2212,1.36045084881769
2211,4.41674967400048
2210,7.2608551505304
2209,6.31655399570444
2208,3.97374624783382
2207,1.69896809454963
2206,0.14921501304689
2205,-1.19682426412455
2204,-2.43056957822479
2203,-2.83295916109172
2202,-3.06235881401793
2201,-3.27883819748459
2200,-3.42690371382656
2199,-3.56422083321117
2198,-4.27070372841418
2197,-7.32219945621749
2196,-10.6245408931681
2195,-13.2361398434997
2194,-13.6769114206301
2193,-13.9581189428414
2192,-13.0625318813296
2191,-9.28686496968392
2190,-5.39068870685682
2189,-4.95789209021934
2188,-11.1346204462693
2187,-17.4706963204866
2186,-21.3891039450184
2185,-21.6975694035637
2184,-21.9705704638984
2183,-20.7977535149271
2182,-17.9538474114743
2181,-15.1151716608927
2180,-13.3293021415023
2179,-12.4748116746847
2178,-11.6258427453332
2177,-11.3906012041711
2176,-11.5821220933888
2175,-11.7471399068807
2174,-9.45261450428747
2173,-5.49784274721432
2172,-1.60370850761717
2171,-0.348183879234909
2170,-0.523768825571225
2169,-0.699372587441293
2168,-0.886594947469766
2167,-1.07866071553483
2166,-1.27096389965366
2165,-1.47235806784183
2164,-1.67765938640489
2163,-1.83957787900828
2162,-1.23195689227939
2161,-0.349445272616566
2160,0.393743335356462
2159,-0.556072729409857
2158,-1.99977467833489
2157,-3.12911952278992
2156,-1.14219631787765
2155,1.75314521998683
2154,4.45616487791266
2153,5.36363966379604
2152,5.82714416116583
2151,6.22934824090431
2150,6.24794700821608
2149,6.18344768576548
2148,6.09745566026429
2147,5.84488322651741
2146,5.55821419312141
2145,4.89898137291588
2144,1.45090920333101
2143,-2.62867602490599
2142,-6.30046214251791
2141,-7.32809268663211
2140,-7.86496909201182
2139,-8.915132404529
2138,-13.4961074785783
2137,-18.7204811702004
2136,-23.2930908679078
2135,-24.2230046520997
2134,-24.5756019608334
2133,-24.9123570745802
2132,-25.1162557231271
2131,-25.2950607659879
2130,-25.5175056958422
2129,-26.0264745679572
2128,-26.5830719558339
2127,-27.3907278520829
2126,-29.5421845063521
2125,-31.8965246404411
2124,-33.7102563381675
2123,-31.9868467230705
2122,-29.7557986768054
2121,-27.013426194107
2120,-20.7919573363736
2119,-14.1912188997146
2118,-8.30082292649115
2117,-6.99693109017991
2116,-6.63270971965428
2115,-6.36909769455086
2114,-6.73997985435925
2113,-7.2395123435086
2112,-7.74880382597803
2111,-8.45056162018571
2110,-9.20585979979605
2109,-9.69602546395091
2108,-8.20135552888116
2107,-6.28340010818691
2106,-4.46903391198458
2105,-3.98384084419382
2104,-3.81292822053001
2103,-3.64787694810666
2102,-3.60838676434324
2101,-3.60185094877906
2100,-3.64072429637192
2099,-4.24595583080379
2098,-5.02019262640238
2097,-5.69374865098263
2096,-4.70093684893008
2095,-3.15078959726261
2094,-1.62709014429245
2093,-1.16992161284959
2092,-1.11159506473548
2091,-0.986915035686317
2090,0.612280198117825
2089,2.85326067949178
2088,5.03988257818245
2087,5.3585711115615
2086,4.64616614703219
2085,3.94417573975808
2084,1.96997948905726
2083,-0.788362487408996
2082,-3.5091402116804
2081,-5.99761229613611
2080,-8.1886354063428
2079,-10.362992525461
2078,-11.418663115646
2077,-11.3738739526971
2076,-11.3262594431107
2075,-12.0936513853855
2074,-13.8182345775547
2073,-15.5231847268776
2072,-14.0532082110261
2071,-7.49819522913939
2070,-1.11923013139378
2069,0.295404371027924
2068,-7.35461154898431
2067,-15.175964252034
2066,-18.8638363200372
2065,-12.369037430975
2064,-5.51513196730694
2063,-0.475133934275267
2062,-1.04614427254018
2061,-2.03875712051601
2060,-3.03994220727359
2059,-4.10266818573382
2058,-5.16096811233077
2057,-6.26923514486524
2056,-7.71347826321574
2055,-9.19417206142877
2054,-10.458349189702
2053,-10.2150977367919
2052,-9.65009513084484
2051,-8.88857150220811
2050,-5.58870346074299
2049,-1.59066956921745
2048,2.20719013997551
2047,2.67969673033419
2046,1.82702835842232
2045,0.988595121101891
2044,0.518710686545811
2043,0.244573627261309
2042,-0.0217318704076628
2041,0.620555826556959
2040,1.94115953476104
2039,3.25359403896308
2038,5.67913430539414
2037,9.29553944543377
2036,12.7810956620181
2035,16.0987466730688
2034,18.974661405057
2033,21.8190786198652
2032,22.4161751530931
2031,17.6148540041589
2030,12.6410676273223
2029,9.94924087865979
2028,14.6410051271963
2027,19.7854271980884
2026,23.7756392614249
2025,21.0670167624903
2024,17.3455076285391
2023,13.4124945728733
2022,7.58583918805352
2021,1.16258953595093
2020,-4.81720538003963
2019,-3.47087425087112
2018,0.412650208843688
2017,4.12805262887361
2016,6.2432094256995
2015,7.40257219267677
2014,8.55232013300055
2013,8.86474059458036
2012,8.48609384709769
2011,8.10007826538505
2010,8.43937803529258
2009,9.8133128339165
2008,11.1882354258541
2007,12.0180091684967
2006,11.7160133948749
2005,11.3728561666946
2004,11.5085028371934
2003,13.4473245000411
2002,15.5353018527392
2001,17.1351743911397
2000,16.0166971183791
1999,14.4263956169149
1998,12.8837314842071
1997,11.2643282896423
1996,9.64150993739712
1995,8.10707255614543
1994,8.01312885378031
1993,8.64909806878505
1992,9.26157474643382
1991,9.32127328660298
1990,8.8987845218281
1989,8.48767253180983
1988,8.0921140658143
1987,7.71172459578525
1986,7.3329531069871
1985,6.92826370913444
1984,6.4153666706746
1983,5.89951195810331
1982,5.88109953150465
1981,8.16408103067158
1980,10.8102532764071
1979,12.9310738610508
1978,10.2386360466371
1977,6.3001643063336
1976,2.47756991413703
1975,1.19103142530691
1974,0.93060624400757
1973,0.679528306222351
1972,3.51248766238581
1971,8.63811296094586
1970,13.7472426554708
1969,16.6456919247686
1968,15.7906547697736
1967,14.9044147517189
1966,14.6158685521911
1965,16.1279544299794
1964,17.8077807986149
1963,19.3615819467694
1962,20.1899127053548
1961,20.9092266944837
1960,21.596413554674
1959,21.6497946981043
1958,21.5017612962949
1957,21.3523301697361
1956,21.0453394695051
1955,20.6289257264115
1954,20.2139809765021
1953,20.0834279846469
1952,20.288354211808
1951,20.4934247060142
1950,20.6912741083913
1949,20.8508221036576
1948,21.0007805688693
1947,21.0678214076915
1946,20.7089948401589
1945,20.2907795331379
1944,19.8783214234045
1943,19.6372610764018
1942,19.4528082981565
1941,19.2687515437997
1940,19.0977359469765
1939,18.9350584453228
1938,18.7725608759397
1937,18.388587986209
1936,17.687768123357
1935,17.0027497332845
1934,16.4711049264435
1933,16.3825955752169
1932,16.3222917306156
1931,15.9763310428491
1930,13.5732365067686
1929,10.6971858901758
1928,7.96790984237414
1927,7.85422225688925
1926,8.70294084429278
1925,9.54674119057119
1924,11.3580613124713
1923,14.0478351426905
1922,16.7255145718551
1921,18.4865257730041
1920,18.2059974765774
1919,17.8496356871689
1918,17.3159972594017
1917,15.9786239072314
1916,14.5746251184831
1915,13.2282786682136
1914,12.5500401545704
1913,12.0788235650473
1912,11.6102715109945
1911,11.2755492371964
1910,11.0394117980875
1909,10.8036951612155
1908,10.6839834514802
1907,10.7842101849379
1906,10.8891460057853
1905,11.0121720190367
1904,11.2216281432215
1903,11.4413723114525
1902,11.6387061059564
1901,11.5085619304422
1900,11.2691991999119
1899,11.031808912723
1898,11.5453275128352
1897,12.6751765865723
1896,13.7978842547195
1895,15.0847804423734
1894,16.7339896709985
1893,18.387899014394
1892,19.7672165338984
1891,19.6850024604004
1890,19.3828929636045
1889,19.083094623136
1888,18.8177639425731
1887,18.5662910225918
1886,18.3152554748805
1885,18.8875676243904
1884,20.3054055844561
1883,21.7198194020162
1882,22.6595144637943
1881,22.3402611291907
1880,21.9542346870761
1879,21.4923849087422
1878,20.4745875343464
1877,19.3493406245508
1876,18.249826211248
1875,18.0176839541945
1874,18.2292356657069
1873,18.4401791620809
1872,18.6173649363994
1871,18.7478879297358
1870,18.8783814467055
1869,19.280569663169
1868,20.8181195786561
1867,22.513426381806
1866,24.1089473955845
1865,24.2186187284557
1864,23.8183935366514
1863,23.419417218251
1862,22.1665911238983
1861,20.1387639116125
1860,18.1198053763658
1859,17.0449843694103
1858,18.2758602137636
1857,19.6155042834819
1856,20.8893381707083
1855,21.1918325058488
1854,21.2602637756125
1853,21.3213807304302
1852,20.8115951617491
1851,19.9398190125896
1850,19.094930690461
1849,18.4455030865348
1848,18.2035188546429
1847,17.9777095766699
1846,17.8994057714174
1845,18.74102821478
1844,19.7400699899683
1843,20.6927109480327
1842,20.8938482372711
1841,20.6845402423618
1840,20.4754511355414
1839,19.688810312232
1838,17.9139265181395
1837,16.1775271282494
1836,14.8785677463448
1835,16.0916684244771
1834,17.7181204019865
1833,19.2836387643813
1832,19.1810852025283
1831,18.2936755877996
1830,17.3832701492692
1829,16.8347605464421
1828,16.8954751144954
1827,16.9605988897427
1826,16.9957960421511
1825,16.860989806813
1824,16.6977331290824
1823,16.5328948030291
1822,16.3200642004881
1821,16.0825668561675
1820,15.840797984906
1819,15.531213359947
1818,15.1126464049395
1817,14.6921065553454
1816,14.4319121104702
1815,15.2435629625897
1814,16.2087175885075
1813,17.155079843244
1812,16.8103239759707
1811,15.6423676831227
1810,14.5068369966349
1809,14.2314925425116
1808,15.9247394378227
1807,17.6981161125505
1806,19.244281651512
1805,19.3188193638827
1804,19.075708122064
1803,18.838351054426
1802,19.3654144629163
1801,20.4520492309949
1800,21.5699651266901
1799,22.1682509771184
1798,21.3493207333745
1797,20.4258666665881
1796,19.5695251175787
1795,19.3314244424064
1794,19.2883631034655
1793,19.2451892911564
1792,19.6666179748137
1791,20.6150077290749
1790,21.5935886003815
1789,22.3945935114444
1788,22.5446966807768
1787,22.6288965817087
1786,22.709070509916
1785,22.8322912834512
1784,22.9827637906607
1783,23.1254509066235
1782,23.3851362337711
1781,23.8911533014747
1780,24.3849531770206
1779,24.8228751098987
1778,24.8291536880226
1777,24.735951097467
1776,24.6415633999724
1775,23.9998763227649
1774,22.8761973841508
1773,21.7221314097142
1772,20.790529990056
1771,20.5563683118354
1770,20.3772689738993
1769,20.2313317466578
1768,20.8511629352959
1767,21.7807212364065
1766,22.7090111146331
1765,25.0401777118383
1764,29.6832376315495
1763,34.3679725076427
1762,38.6465168219875
1761,39.4324797845886
1760,39.4704220024984
1759,39.5040666352998
1758,39.4679328770782
1757,39.368670812099
1756,39.269277465767
1755,38.3242272653392
1754,34.2803006590521
1753,29.9322269099626
1752,25.6663317592213
1751,24.3640040695812
1750,24.5121559016748
1749,24.6596946846355
1748,24.8141274671714
1747,24.9861329754061
1746,25.1664997568837
1745,25.3526983138318
1744,25.7228721410842
1743,26.1432178994683
1742,26.5620794944006
1741,28.8294557996406
1740,33.6535515180978
1739,38.4773418216913
1738,42.7773516214539
1737,43.8269133176851
1736,44.2583628334688
1735,44.6868034177454
1734,44.6812416691062
1733,44.302392444763
1732,43.9243257162042
1731,43.7907264238882
1730,44.7162185152184
1729,45.7496622626131
1728,46.7670967297433
1727,47.1688825718631
1726,47.2127951978418
1725,47.2561461887827
1724,47.3120830735009
1723,47.4041971120697
1722,47.4981710157413
1721,47.5789427481197
1720,47.3682324522428
1719,47.0437653028892
1718,46.7197537420795
1717,46.7585089829075
1716,47.5317971414335
1715,48.3187542148037
1714,49.0039789370067
1713,48.699292158318
1712,48.0857566460935
1711,47.4747877110167
1710,46.3562199325306
1709,44.4230142323261
1708,42.4872774285946
1707,40.6296441848864
1706,39.3546115000563
1705,38.249135163853
1704,37.1173547269106
1703,35.7651057450798
1702,34.1286033982
1701,32.4969161776727
1700,31.0447378084834
1699,30.5506619080472
1698,30.2536155295603
1697,29.9569419654267
1696,29.6228999690517
1695,29.2580835892454
1694,28.8861774591057
1693,28.6882115472558
1692,29.5750630940991
1691,30.6340574824721
1690,31.655443606808
1689,32.0422401248425
1688,31.7794861717403
1687,31.5217835527525
1686,31.3449736672251
1685,31.631813364842
1684,31.992385384595
1683,32.3500971519412
1682,32.1576357778454
1681,31.4831088297952
1680,30.8104202005718
1679,30.3841555020395
1678,31.2518993911733
1677,32.3066696924987
1676,33.3209806039366
1675,35.1076797212199
1674,37.5634195099836
1673,39.9291243001882
1672,42.0372811059242
1671,42.4229260151888
1670,42.5268327196319
1669,42.6377574968068
1668,44.7834909715282
1667,48.6789246600432
1666,52.6872383091313
1665,56.1762651417559
1664,56.6833564936557
1663,56.7519552367134
1662,56.8194727182848
1661,56.2415866614075
1660,55.0181791259622
1659,53.7671362465731
1658,52.6756100049652
1657,52.6508693201209
1656,52.8240493750668
1655,52.9952150678152
1654,52.6411940021569
1653,51.6614730341611
1652,50.6570465861749
1651,49.6614895560298
1650,48.7432739688994
1649,47.8398635406958
1648,46.9167606762044
1647,46.2279227607305
1646,45.9063047537691
1645,45.5885291007382
1644,45.4435689955588
1643,47.3856232680472
1642,49.8755976991542
1641,52.3494738306999
1640,56.2457915748957
1639,62.9233702724287
1638,69.4476036100743
1637,75.7471751428554
1636,77.6859513411196
1635,77.7934834526072
1634,77.8993815725073
1633,77.6582210558259
1632,76.4575014661367
1631,75.1699038687793
1630,73.8803147625702
1629,72.2431512668003
1628,70.4071746027378
1627,68.5821231809759
1626,66.6188052900261
1625,64.2739466907915
1624,61.9615623943909
1623,59.6590309309194
1622,58.2442868707224
1621,57.6129151230621
1620,56.9678565393364
1619,56.3208541965451
1618,55.6697224961878
1617,55.0175294157224
1616,54.3679388865778
1615,53.9876386945893
1614,54.0254162867472
1613,54.0668545921559
1612,54.2272070265235
1611,55.9756458161697
1610,58.1938670101494
1609,60.4030248702314
1608,61.9471390946911
1607,61.7706624357063
1606,61.5055434750096
1605,61.2394438287605
1604,60.8062415106807
1603,60.2883486458152
1602,59.7717966647943
1601,59.2763239684612
1600,58.8718683998739
1599,58.4716698659006
1598,58.0720663742964
1597,58.0457340837742
1596,58.3546047414965
1595,58.6617225599564
1594,58.9969214865405
1593,59.6001791624776
1592,60.2640286057296
1591,60.924210317721
1590,61.5630284348431
1589,62.1847401860423
1588,62.8028384530633
1587,63.3634000628318
1586,63.1279865306247
1585,62.5501375100246
1584,61.9740293587414
1583,61.7646086200731
1582,62.9846587062771
1581,64.3438583199146
1580,65.69700760294
1579,66.9699783270226
1578,68.1613198116661
1577,69.3481195894146
1576,70.5446238242542
1575,71.8912974839888
1574,73.2773574196151
1573,74.7095490413354
1572,75.9008493139407
1571,76.5606751501862
1570,77.2063795320783
1569,77.8519357980697
1568,78.5032399693603
1567,79.1562122883878
1566,79.8074500040496
1565,80.2623894553886
1564,79.7595506549736
1563,79.1296993209916
1562,78.5017691353852
1561,79.913071943675
1560,84.0677298465821
1559,88.2273955908707
1558,92.4127595537205
1557,97.177453245264
1556,102.139587858523
1555,107.08886192512
1554,110.945660705526
1553,111.153652571589
1552,111.068021685578
1551,110.981553447968
1550,112.694163202942
1549,116.042913231016
1548,119.377700962416
1547,123.45035598487
1546,134.528034721744
1545,147.4895949476
1544,160.854398452441
1543,176.318419471756
1542,198.212245568755
1541,220.509706967891
1540,242.756298981302
1539,260.498035822231
1538,274.475298335187
1537,288.424688082686
1536,301.156198272195
1535,303.025968898964
1534,302.310544384669
1533,301.595937079508
1532,300.927978506709
1531,300.368183915297
1530,299.819960655583
1529,299.264631886092
1528,295.959043351906
1527,290.442149089242
1526,284.93840822875
1525,277.330943647028
1524,250.847394711429
1523,220.010951319031
1522,189.268642643884
1521,164.171108728843
1520,152.559829197095
1519,141.525482795732
1518,130.176029261807
1517,120.133823249668
1516,111.171341572644
1515,102.231127334964
1514,93.9928932902342
1513,92.1409705446821
1512,91.849994349196
1511,91.5590648354509
1510,91.1109156611908
1509,90.1893270345463
1508,89.2370403826961
1507,88.2873655082526
1506,85.9427436399012
1505,82.4636864877102
1504,78.9912767429651
1503,75.7585291655312
1502,77.5434119645
1501,80.9932817473667
1500,84.4375509229958
1499,86.4364676306194
1498,83.2909245119876
1497,79.5796846204457
1496,75.8686551977518
1495,73.3555077729648
1494,72.402148481956
1493,71.481233359243
1492,70.5883595726327
1491,70.4619465948742
1490,70.7054516958951
1489,70.94754318824
1488,71.4394115722166
1487,73.4941843617771
1486,75.8629870808966
1485,78.2314858111049
1484,79.4420438538812
1483,78.376835566793
1482,77.2229150234687
1481,76.0733323220666
1480,75.271577141205
1479,74.7258331036705
1478,74.1806907464197
1477,73.6310187819698
1476,73.1457700070926
1475,72.6866617742074
1474,72.2277692884382
1473,71.8209568386295
1472,71.6351263544729
1471,71.4682417422055
1470,71.3010692714078
1469,71.1756648803814
1468,71.1098739798996
1467,71.0397997514734
1466,71.0066898064033
1465,72.7983271386123
1464,75.5828873442088
1463,78.2660750588878
1462,80.8656216157312
1461,82.9332194178596
1460,84.8639447585319
1459,86.7272717953712
1458,88.5147149669237
1457,90.1409142363538
1456,91.6925786566576
1455,93.2424831324972
1454,93.9593936949902
1453,93.6021658466459
1452,93.2427079891529
1451,92.8741100512518
1450,92.3502297404463
1449,91.7659038809035
1448,91.1827398202971
1447,90.5872541829501
1446,89.9892902546474
1445,89.3887175441894
1444,88.7765089147448
1443,88.7602551087404
1442,90.4928148000152
1441,92.3911900013773
1440,94.2200035668576
1439,94.8845775358637
1438,94.0080823443562
1437,93.1434141760061
1436,92.2871037529777
1435,91.7542472810337
1434,91.4105468002675
1433,91.0668316135938
1432,90.7048050839109
1431,90.1475274254054
1430,89.5308044170821
1429,88.9272115168414
1428,87.4861563957601
1427,82.6540198454692
1426,77.6295062160622
1425,72.6132010690556
1424,69.3700162961898
1423,69.4161043194494
1422,69.5167345513417
1421,69.6162400622864
1420,69.2991608689307
1419,68.6340895647768
1418,67.983267786314
1417,67.3223923049233
1416,66.4809319226364
1415,65.5715380761968
1414,64.641712054879
1413,63.9170869862287
1412,64.3643201340469
1411,64.9997105594128
1410,65.6321130837731
1409,65.916785050548
1408,65.0974852254299
1407,64.1843315040425
1406,63.2929832926249
1405,62.6791630627637
1404,62.4735279399454
1403,62.2725642474911
1402,62.0720860126631
1401,62.1099273419116
1400,62.3387368342183
1399,62.5519717198355
1398,62.85722950668
1397,64.6181375861197
1396,66.9083175829629
1395,69.1920250088467
1394,71.3203702964909
1393,72.4608496403309
1392,73.4054697847585
1391,74.3476988973333
1390,75.1117822096352
1389,75.2710212016725
1388,75.3732636735355
1387,75.4747451378243
1386,75.6581728064846
1385,75.9993150059784
1384,76.3451202837866
1383,76.69093162966
1382,77.5008805914036
1381,78.8366796083165
1380,80.1178815011287
1379,81.3271750722556
1378,81.5551795003344
1377,81.2261430742962
1376,80.8970175411669
1375,80.5969279286767
1374,80.7045906538898
1373,80.9334604717029
1372,81.1612442691007
1371,81.5110687077962
1370,82.6277434392177
1369,83.8623571282105
1368,85.0938870836083
1367,85.9736332140634
1366,85.6981919191418
1365,85.3416416441978
1364,84.9850572790575
1363,85.0603867560109
1362,85.900533349993
1361,86.7898353938279
1360,87.6768275196904
1359,88.6179560631816
1358,89.6206124424991
1357,90.6204280395034
1356,91.6245858383703
1355,93.3417315542597
1354,95.4941371458464
1353,97.5626176556677
1352,99.8901643472662
1351,105.78367555256
1350,113.129160628686
1349,120.465639515858
1348,128.045696215527
1347,141.227354424702
1346,155.736995097078
1345,170.228150313452
1344,182.590503544354
1343,183.667125182112
1342,183.224421373112
1341,182.784749854201
1340,182.30705675043
1339,181.717357806872
1338,181.126850091781
1337,180.528729805426
1336,176.731790110247
1335,165.885849576746
1334,154.858126550778
1333,144.207113043212
1332,132.926350251929
1331,121.217525230551
1330,109.891605542727
1329,98.2232059351342
1328,92.5555844983323
1327,92.3541138055787
1326,92.1551051797164
1325,91.9539157188156
1324,91.6052128857366
1323,91.1698372860534
1322,90.7394402344261
1321,90.3144785043923
1320,90.0834467453673
1319,89.9269754627398
1318,89.7742157179359
1317,89.6462505573282
1316,89.7952534828768
1315,90.0374940533661
1314,90.2782344404123
1313,90.7107832248278
1312,92.7171788436933
1311,95.12800020393
1310,97.5337657055545
1309,99.6218950315413
1308,100.526299042335
1307,101.248717993404
1306,101.936767840187
1305,102.469528581368
1304,102.343538857543
1303,102.149587463709
1302,101.954973007036
1301,103.040463976066
1300,107.613350157168
1299,112.239560035265
1298,117.023119408867
1297,120.502320418506
1296,121.365866097292
1295,122.169993387558
1294,123.007734415811
1293,123.176856978323
1292,122.339988981431
1291,121.496746339319
1290,120.637053890212
1289,120.066500344513
1288,119.833867319758
1287,119.600924768904
1286,119.368739524354
1285,117.554973346742
1284,114.413310672003
1283,111.277804068336
1282,108.031049084693
1281,102.342357999992
1280,95.158832199374
1279,87.984179146208
1278,80.6569456373595
1277,76.2220669853841
1276,73.5000116152442
1275,70.7794316729543
1274,68.0773604248494
1273,66.0216663131096
1272,64.3286721705264
1271,62.6863997109285
1270,61.0635930923753
1269,59.7720779232089
1268,58.5890281718854
1267,57.4070598428672
1266,56.1261306444302
1265,52.8798003749067
1264,48.975656436409
1263,44.9542617565191
1262,41.128290835965
1261,39.5214685457738
1260,38.4851324157143
1259,37.4500049294302
1258,36.4667167798857
1257,36.0576863506311
1256,35.8083277185707
1255,35.5580183088719
1254,35.3211760274122
1253,35.2008987524749
1252,35.1069636411082
1251,35.0187667524025
1250,35.3563403734956
1249,38.5276463460867
1248,42.2218379011985
1247,45.9150629895636
1246,49.1801852682587
1245,49.446330169885
1244,49.1316072747821
1243,48.8167300564598
1242,48.5628238714376
1241,48.6503688044976
1240,48.7910918190852
1239,48.9313987177007
1238,49.140489599988
1237,49.7680991445759
1236,50.4975053659213
1235,51.2260344733313
1234,51.7325008109203
1233,51.3019624280505
1232,50.7440880162385
1231,50.1863924729338
1230,49.7216827756493
1229,49.7523014531648
1228,49.8551421241595
1227,49.9570086686937
1226,50.0827722379635
1225,50.2656948307435
1224,50.4416418764236
1223,50.6178837456977
1222,51.3018584283446
1221,54.4614289164066
1220,57.9450536810142
1219,61.4233241207027
1218,64.6934181455318
1217,66.8771230226948
1216,68.8978204469702
1215,70.9150653270625
1214,72.6290447503728
1213,72.5671241992641
1212,72.2160773381749
1211,71.864900112132
1210,71.5045453199867
1209,71.0995889430806
1208,70.6899805074082
1207,70.2802036187753
1206,69.6606818421292
1205,67.8563779409874
1204,65.8655757594277
1203,63.8732148166109
1202,61.9216555617645
1201,60.2407536841395
1200,58.6098570071261
1199,56.9813187427993
1198,55.489782249483
1197,54.9797944050165
1196,54.6652693516542
1195,54.3505648928186
1194,54.1183288970108
1193,54.5843202866509
1192,55.2070335178091
1191,55.8286305027362
1190,56.376364859296
1189,56.1982419898874
1188,55.8339032087913
1187,55.4694318944423
1186,55.0814817956081
1185,54.4132602744786
1184,53.6645672539152
1183,52.9174243444044
1182,52.1893354821166
1181,51.7244289758659
1180,51.3468648212311
1179,50.9692589064507
1178,50.5740143235876
1177,49.8419603047688
1176,49.0002244630473
1175,48.159728230638
1174,47.2786143063411
1173,45.1985341491527
1172,42.4605379767649
1171,39.7280179390702
1170,37.0162981451886
1169,35.6571690698515
1168,35.1656561772679
1167,34.6745722143813
1166,34.1867730324735
1165,34.3066673932542
1164,34.8846847470812
1163,35.4615173555084
1162,36.0371653547862
1161,37.7724994210033
1160,40.4393088368825
1159,43.0964176585702
1158,45.8460988580981
1157,47.7490967748452
1156,48.4795573908263
1155,49.2004434702366
1154,49.9190662849705
1153,50.7101595490229
1152,51.6243630690888
1151,52.5397949510606
1150,53.4129782243885
1149,54.07790883143
1148,54.2663928750318
1147,54.429315488971
1146,54.5910611254186
1145,54.5963549302474
1144,54.13730728021
1143,53.6478693746599
1142,53.1638243556792
1141,52.7508558792824
1140,52.6579528685649
1139,52.6044898167237
1138,52.5504203935904
1137,51.9067838005887
1136,47.923308089903
1135,43.5630612840163
1134,39.2116910766684
1133,35.015422041118
1132,33.5878093553585
1131,32.8568768839327
1130,32.1261057752299
1129,31.420525361615
1128,31.043515178812
1127,30.7688309437556
1126,30.4956019055906
1125,30.2349488264881
1124,30.384293534087
1123,30.707633416613
1122,31.0304551589286
1121,31.3732399004206
1120,31.3222445461815
1119,30.9744516751165
1118,30.6265625082329
1117,30.2792810694467
1116,29.983713800148
1115,29.7516100628359
1114,29.5192498288281
1113,29.2864517826519
1112,29.066157818579
1111,28.8734007180632
1110,28.6856250574246
1109,28.4977899148066
1108,28.3055127831752
1107,28.1141491928598
1106,27.9276820171331
1105,27.7413211294801
1104,27.4038434241202
1103,26.4852803238759
1102,25.5056960965843
1101,24.5056330613711
1100,23.5546285353188
1099,22.9314891270559
1098,22.3684199613716
1097,21.7977908539226
1096,21.2394765121593
1095,20.8364595960586
1094,20.4810051042368
1093,20.1245338374824
1092,19.7715289016524
1091,19.5390565007338
1090,19.369165111288
1089,19.2043767209098
1088,19.0392486602303
1087,18.8797477386389
1086,18.7299413255067
1085,18.5859731485736
1084,18.435457351993
1083,18.2734594004458
1082,18.097312492736
1081,17.9205840953765
1080,17.7385305112072
1079,17.3678682958627
1078,16.4442242707704
1077,15.5055785907997
1076,14.5672498512188
1075,13.8430469808564
1074,14.290719376397
1073,14.8669401688722
1072,15.4427906398206
1071,15.9975195966513
1070,16.0588670257592
1069,16.001820014361
1068,15.9537810314524
1067,15.8981456274369
1066,15.9326253935006
1065,16.0232602995401
1064,16.0994441649233
1063,16.1753808109914
1062,16.2723681651331
1061,16.3599982671474
1060,16.4465203516669
1059,16.5465435004783
1058,16.7385064318022
1057,17.1135422728678
1056,17.513407582858
1055,17.8863504299272
1054,18.1129829828619
1053,17.8787155993888
1052,17.6027182395483
1051,17.3265465046796
1050,17.0653985423289
1049,16.9151137064679
1048,16.7922137531848
1047,16.6618819786366
1046,16.4985487034523
1045,15.7382679945398
1044,14.7733421158004
1043,13.8083131872741
1042,12.8449106038366
1041,12.6619930221824
1040,13.0989459431169
1039,13.5086473686736
1038,13.9170996353439
1037,13.8903263265773
1036,13.1477291502044
1035,12.3849703650892
1034,11.637430468485
1033,10.7935658542328
1032,9.64070217312951
1031,8.46177461583734
1030,7.25375066984165
1029,6.16944842786952
1028,5.79353821413967
1027,5.54850592853741
1026,5.30330451744161
1025,5.0971568685311
1024,5.5691597896358
1023,6.32004577984047
1022,7.07026726332514
1021,7.81982501536884
1020,8.04566202534133
1019,7.77608284727121
1018,7.50626696234915
1017,7.23621534527645
1016,7.53309877742453
1015,8.95110973707454
1014,10.4022452548584
1013,11.8487703839895
1012,12.9747681416265
1011,12.644547517886
1010,12.1160253560941
1009,11.5880431789185
1008,11.0867761066181
1007,10.9384435378244
1006,10.9092847018606
1005,10.8797221552171
1004,10.8536426597044
1003,11.5190977095467
1002,12.7271065744727
1001,13.9868995939525
1000,15.1905795182288
999,15.0692575708688
998,12.6665422309578
997,10.2196041895375
996,7.77698723865539
995,5.72863909273505
994,5.2485187832045
993,4.95068715783176
992,4.65262304460916
991,4.36674005678569
990,4.31754751108017
989,4.34529980204412
988,4.37357916148792
987,4.40232515742686
986,4.2383162994414
985,3.91878071511738
984,3.59915457362482
983,3.27943874699308
982,2.91094492309295
981,2.4431514012833
980,1.97215168012355
979,1.50146346233358
978,1.07286606921169
977,0.850460562038378
976,0.658504134996351
975,0.466281112274456
974,0.266799501640073
973,0.0380221146526397
972,-0.204999765631158
971,-0.448147255729598
970,-0.691419493522802
969,-0.882485349372453
968,-1.01816300432064
967,-1.16192417405476
966,-1.29849767041507
965,-1.0962696436249
964,0.160550098801231
963,1.47863255205136
962,2.7919091567005
961,4.10272589400014
960,5.37184920017884
959,6.70121623870233
958,8.02778236410669
957,9.33646162183841
956,9.66604591850315
955,9.36456518512915
954,9.06551571910499
953,8.7663707863048
952,8.4613295247619
951,8.14517552261946
950,7.82668898057785
949,7.51005683872621
948,7.2003056558926
947,6.93155973607717
946,6.66882931577223
945,6.40220010799865
944,6.13565677680274
943,5.7728199806897
942,5.36543420525342
941,4.95691532474505
940,4.54849189449521
939,4.37717205039101
938,4.5444329655604
937,4.6958861891625
936,4.86555490058309
935,5.19041690870771
934,6.14047882596715
933,7.20448170506706
932,8.2621289392928
931,9.21790772440875
930,9.05716142316906
929,8.43165235975165
928,7.81514471805208
927,7.19077842732896
926,6.94573256892687
925,7.16392379133041
924,7.40451746118379
923,7.64548414840273
922,7.81929903439631
921,7.81094994657153
920,7.78072702316769
919,7.73808804774333
918,7.70399864612405
917,7.61319817701481
916,7.49138836050226
915,7.369675177281
914,7.25745286576368
913,6.87632792329042
912,6.14619109076543
911,5.40343548329814
910,4.66156410677389
909,3.99079179901021
908,3.58259779090949
907,3.20640578864805
906,2.83001818748306
905,2.45429276903603
904,2.09934891060006
903,1.75362909936824
902,1.40662932523363
901,1.05962672062168
900,0.979183566850091
899,1.33706304703472
898,1.67733464252617
897,2.01754446717526
896,2.32778287268924
895,2.32061555684682
894,2.24768637137581
893,2.18566552131682
892,2.14419457391382
891,3.06121502125342
890,4.50116295091672
889,5.93917867215162
888,7.4405621558558
887,8.62171349788679
886,9.06589097462148
885,9.48720346374888
884,9.93617039317015
883,10.2997695062242
882,9.92302004034163
881,9.3855148706926
880,8.84355910148587
879,8.30222081488835
878,7.84284231654407
877,7.44837727623074
876,7.05399784445842
875,6.6597880738941
874,6.33268718503381
873,6.2257243930081
872,6.13565291535439
871,6.04532807599857
870,5.95315856816754
869,5.62428153969992
868,5.19984557219243
867,4.7755515156263
866,4.35140041881146
865,4.0120426953933
864,3.81754419805738
863,3.61844514223396
862,3.41889274701393
861,3.18356754219307
860,2.6839633904787
859,2.12549964202901
858,1.5676938088453
857,1.01986125406975
856,1.576272504118
855,3.00019940996854
854,4.42311073494967
853,5.91014336490867
852,7.20272312232221
851,7.8176060935084
850,8.38729761458734
849,8.9559288063052
848,9.53219221173897
847,10.3556260294973
846,11.3384714678827
845,12.3185227339861
844,13.2479051288148
843,14.0566384410963
842,14.6395276447076
841,15.2142449906073
840,15.7858423225434
839,16.30134087677
838,16.2353773969332
837,16.0071581094923
836,15.7724469465046
835,15.5377665206568
834,15.2664952817005
833,14.9541027372886
832,14.6418099416967
831,14.3296180880214
830,14.0127692101087
829,13.6703933331321
828,13.323531265663
827,12.974351292756
826,12.6233737675733
825,12.0558131675545
824,11.3447803669446
823,10.6343327619214
822,9.92447133740986
821,9.28432006268443
820,8.89201582294596
819,8.52186086000757
818,8.15176650072829
817,7.77329573525645
816,6.98271618953527
815,5.9808692569763
814,4.99985396962422
813,4.01938030535574
812,3.44736249354614
811,3.81806792039308
810,4.22522444966826
809,4.63130527819355
808,5.05324351229016
807,5.7541960087727
806,6.55364924832118
805,7.352540393359
804,8.15087135481804
803,9.23133055514023
802,10.8632722047553
801,12.5081495079494
800,14.152117454036
799,15.7113942269759
798,16.2116704765223
797,16.3918671236515
796,16.5703758823684
795,16.7472020422464
794,16.7543450175496
793,16.4793374107189
792,16.1998611786228
791,15.9203484239101
790,15.6401222372971
789,15.3528699266875
788,15.0636792001158
787,14.7743668260513
786,14.4849344524978
785,16.8576764073022
784,23.1397657109282
783,29.4298768985522
782,35.6964527516985
781,41.4015910470227
780,42.4153885093826
779,42.3461058305433
778,42.2763226519968
777,42.2060407982623
776,41.9073749021743
775,41.3090406147534
774,40.7098532211786
773,40.1111822016981
772,39.1624701096222
771,35.5228704185751
770,31.3251144669167
769,27.1325364267844
768,22.945135522227
767,20.3851436995998
766,19.7811729968426
765,19.1808331039828
764,18.5810745296704
763,18.0167016880529
762,17.6983420046905
761,17.4273189183622
760,17.1564064639547
759,16.8796570171474
758,18.1922359322357
757,21.8364230161233
756,25.4910066704787
755,29.1375731931462
754,33.7546481055601
753,47.2196124109738
752,62.7724390556301
751,78.3032156132266
750,93.8119537447696
749,102.87133508316
748,102.891664528498
747,102.835104722707
746,102.779130031703
745,102.723522888974
744,102.446191581832
743,102.102773770127
742,101.759502376028
741,101.416378796705
740,96.1831691205525
739,82.2854729885271
738,68.2441111438578
737,54.708220104781
736,41.4955658774128
735,33.4909852926112
734,27.639212368328
733,21.7914196542222
732,15.9476042093542
731,11.7372562884605
730,11.2346256084658
729,10.875035511202
728,10.5184759759131
727,10.1649151859711
726,9.90802506717786
725,9.69859107248467
724,9.48936063557769
723,9.27224034589798
722,9.02964614486844
721,8.69710524814514
720,8.35512223254215
719,8.01326199285596
718,7.67785888287893
717,7.9613484863983
716,8.60504824237407
715,9.24603097868017
714,9.92409969431502
713,10.5328155960428
712,10.7902805217197
711,10.9972395516075
710,11.180682331234
709,11.363684009079
708,11.3186550391828
707,10.9740404558875
706,10.6292434999565
705,10.2812656660939
704,10.0196459561534
703,10.6756659848616
702,11.5760877973425
701,12.4753668739229
700,13.3256184699391
699,15.6470407388491
698,21.1682281906613
697,26.7808052545672
696,32.37844249589
695,37.8047112649651
694,44.9940214381428
693,53.2446207788406
692,61.4780693425348
691,69.3831782730296
690,75.6487438388779
689,75.8865635729204
688,75.493010121696
687,75.0997067047719
686,74.7023940644606
685,74.2399995640507
684,73.7235617592359
683,73.2075660290193
682,72.6921852885529
681,71.5209476326274
680,65.2131467231464
679,57.8219447531098
678,50.6874810238038
677,43.5635326460019
676,36.7677584969963
675,30.9768712761354
674,25.3999124529041
673,19.8285290795104
672,14.2160209952349
671,11.8124288604074
670,10.7011773852546
669,9.56687016628298
668,8.43422571948089
667,7.35763302470647
666,6.39783970355424
665,5.4298758266307
664,4.462345059434
663,3.51420277037861
662,2.94813038642263
661,2.76353404468234
660,2.57028920203607
659,2.37735568994048
658,2.15857532531964
657,1.60391853526378
656,0.96329513577809
655,0.315349142361579
654,-0.33227575479296
653,-0.996043361781333
652,-1.7166510116175
651,-2.44925353518145
650,-3.17022751478856
649,-3.8858924881983
648,-4.2027243080866
647,-4.27008900018431
646,-4.33791809087213
645,-4.39288159215105
644,-4.52726722783427
643,-5.11578186494147
642,-5.79107988149509
641,-6.45682704941694
640,-7.12187930227421
639,-7.66144145741511
638,-7.96383437541058
637,-8.26107815382354
636,-8.55332529628032
635,-8.83171630702517
634,-8.2743518869857
633,-7.2486977980863
632,-6.27597349678698
631,-5.30436764115536
630,-4.41932778308854
629,-4.03468877035041
628,-3.69615482155655
627,-3.38560183762854
626,-3.07559681867841
625,-3.22074187711434
624,-4.11943575990862
623,-5.02676572415568
622,-5.95049259064524
621,-6.84182351960866
620,-7.28385162831509
619,-7.52468938856826
618,-7.76520795929581
617,-7.99856010748859
616,-8.27441514389696
615,-8.73909351455464
614,-9.22782214574536
613,-9.71588813708383
612,-10.2056872649982
611,-9.55981372314699
610,-7.06395716136373
609,-4.55687177501015
608,-2.055393129944
607,0.523108395353338
606,2.23338841783865
605,3.56541443775728
604,4.89703901670617
603,6.22826606632381
602,7.40121832213512
601,7.49992008971221
600,7.42943630864559
599,7.34572600532801
598,7.26206171312088
597,7.10131174029861
596,6.78080957587715
595,6.45684660781003
594,6.13324921541158
593,5.81363923105006
592,5.44648310838448
591,5.05200663262019
590,4.65803031291154
589,4.26455558935591
588,3.83910077445295
587,3.10047584451471
586,2.2906810642659
585,1.48166629543939
584,0.673432453019408
583,-0.166789494990153
582,-1.10370756172426
581,-2.04707260336448
580,-3.00861094183298
579,-3.95034274961886
578,-4.55320980497038
577,-4.81825348680811
576,-5.08274085413216
575,-5.34667003415613
574,-5.64321455245303
573,-6.48427687915821
572,-7.53280295840932
571,-8.58027545266216
570,-9.62669365410035
569,-10.5567290603578
568,-10.8953992164815
567,-11.1590679789173
566,-11.422344174857
565,-11.6852262465494
564,-11.895579875249
563,-12.0082632646008
562,-12.1177038725108
561,-12.2265659098121
560,-12.3356460804138
559,-12.5226364917692
558,-12.7639785087338
557,-13.0049102420445
556,-13.2519182102279
555,-13.4870934142443
554,-13.6616633700702
553,-13.8165070958116
552,-13.9708516349395
551,-14.1246950703423
550,-14.098063358283
549,-13.3013382369651
548,-12.4286820870903
547,-11.5581591329264
546,-10.6897648460074
545,-10.2024504330847
544,-10.3298276138955
543,-10.4782670938037
542,-10.6158300025927
541,-10.7488285225453
540,-10.0892147820435
539,-8.87913124506767
538,-7.6686656464201
537,-6.45781248394156
536,-5.3674811700471
535,-5.13962703911772
534,-5.19962128747726
533,-5.25964243081187
532,-5.31968843429036
531,-5.35754618306786
530,-5.30206896074388
529,-5.25312230948809
528,-5.1861557710142
527,-5.11924876999223
526,-4.82974435151239
525,-4.0998353540068
524,-3.39880920446464
523,-2.65486729896206
522,-1.9111945111462
521,-1.8416384984402
520,-2.37150019020731
519,-2.896436977654
518,-3.42432854889619
517,-3.92581161480801
516,-3.78852389441319
515,-3.39598978090573
514,-3.0342571206433
513,-2.64311926681033
512,-2.33452705042096
511,-2.61841065287583
510,-3.00717429323144
509,-3.39535663588454
508,-3.78295603468723
507,-4.09872840638929
506,-4.20355585958795
505,-4.28154787703533
504,-4.35933963444197
503,-4.44951278289526
502,-4.42755441318401
501,-4.24378222506615
500,-4.07987577377561
499,-3.894180407837
498,-3.70901527867057
497,-3.53683970861823
496,-3.33517947910319
495,-3.13495662242277
494,-2.95894698921594
493,-2.77873711872525
492,-2.93076712334647
491,-3.22384948258731
490,-3.51165921828181
489,-3.79893495309238
488,-4.09011696062744
487,-4.37354868128654
486,-4.65609794975738
485,-4.94313822593305
484,-5.22498685013689
483,-5.43007076185976
482,-5.36844518071017
481,-5.26369446803187
480,-5.15855327816431
479,-5.07215596992668
478,-4.95999995777543
477,-4.83457922861977
476,-4.72743903212769
475,-4.61912553221099
474,-4.48961754029692
473,-4.30822638031629
472,-4.09498127241126
471,-3.8577960717179
470,-3.62065034602
469,-3.40945327389158
468,-3.34152959058626
467,-3.3460499150576
466,-3.34980992899938
465,-3.36786444742269
464,-3.36710982916508
463,-3.32449571791704
462,-3.28439099273609
461,-3.24358543649507
460,-3.18477649767859
459,-3.14580400841984
458,-3.26079514952915
457,-3.40036440938077
456,-3.52885611525956
455,-3.65654825438428
454,-3.8154260193701
453,-4.06117976958132
452,-4.30974949076478
451,-4.55765435376904
450,-4.81067329907459
449,-5.17476063341504
448,-5.83811869276196
447,-6.51518671946519
446,-7.18122270146337
445,-7.84646065210428
444,-8.03878585752422
443,-7.4020018604673
442,-6.75164932102205
441,-6.13876392429776
440,-5.52454828942166
439,-5.2443279574242
438,-5.32858871294291
437,-5.42375193814474
436,-5.5181769028041
435,-5.60848607759472
434,-5.30151628346949
433,-4.75582651540835
432,-4.24399342414877
431,-3.73111379949092
430,-3.23685973334224
429,-3.22312385278877
428,-3.41997077472955
427,-3.6236150753889
426,-3.82662510654129
425,-4.0094955924743
424,-3.94459001048546
423,-3.81415451697012
422,-3.70245594726974
421,-3.59004088829296
420,-3.48282599578967
419,-3.39671713213379
418,-3.31684069633054
417,-3.25349721511222
416,-3.18915585059378
415,-3.11854522425852
414,-3.02476576195078
413,-2.90899440173619
412,-2.79251844749117
411,-2.69419170265811
410,-2.23425014795681
409,-0.755279477424398
408,0.785629019079923
407,2.32728862800882
406,3.9443327384724
405,5.08058732580504
404,5.22191818716987
403,5.34220751316887
402,5.46348446577312
401,5.5857525034839
400,5.56219825316814
399,5.29658504457005
398,5.02783651765022
397,4.75519525041681
396,4.48336832798883
395,4.35298733161404
394,4.38227063056301
393,4.41264267369653
392,4.44410701272574
391,4.49397227511566
390,4.73275352466756
389,5.09415438964196
388,5.4557830205327
387,5.81764169897852
386,6.17745186323215
385,6.29170831156968
384,6.24476223559353
383,6.19854943859358
382,6.15307189091049
381,6.1363960638825
380,6.57679631855209
379,7.20967190808579
378,7.84168922363995
377,8.47285117223501
376,9.08585491395389
375,9.30268495944076
374,9.35560094709682
373,9.40911090398564
372,9.46321678039163
371,9.50663476393177
370,9.33276743474173
369,9.0821616942329
368,8.83224106480769
367,8.57794546450031
366,8.33541086396344
365,8.21038819994695
364,8.1175298658493
363,8.02561403783015
362,7.93464295829198
361,7.9720952680342
360,9.2110722204921
359,10.745808159868
358,12.2804947391235
357,13.8151365596337
356,15.216818655463
355,15.4788046820896
354,15.4831735594651
353,15.4885691216142
352,15.4949941291824
351,15.7096620113836
350,17.5437900065903
349,19.7202954117153
348,21.8973157815726
347,24.0748590128952
346,26.0283451480369
345,26.3842061457265
344,26.4221840565087
343,26.4451990424623
342,26.4693023983971
341,26.2437147655499
340,24.7778333589914
339,23.1430524964873
338,21.5072850079156
337,19.8705160061993
336,18.5335248126894
335,18.6064037564537
334,18.8591611475078
333,19.1139591256654
332,19.3708072153074
331,19.5457164111664
330,19.3467759719519
329,19.104472413359
328,18.8579102030193
327,18.6123304834859
326,18.3574776163806
325,18.0151974784059
324,17.6600245386126
323,17.3058492276609
322,16.9526729157615
321,16.6207881965588
320,16.4006524882487
319,16.1981859932805
318,15.9966767037467
317,15.7961261977386
316,15.7676120927155
315,16.6415623462748
314,17.646837781116
313,18.6521566612398
312,19.6575219721223
311,20.6235334624353
310,21.3881056448471
309,22.1252433923268
308,22.8634791145138
307,23.602817664372
306,24.2435780521758
305,24.3679644929261
304,24.4244069546677
303,24.4989376363056
302,24.5745110105549
301,24.7930809642251
300,25.9636222832602
299,27.3108983236163
298,28.6588337479868
297,30.007433699998
296,31.2079734057627
295,31.4228356467968
294,31.4579824098926
293,31.4942446115728
292,31.5159019781757
291,31.5170395555527
290,31.3344841973083
289,31.1042354039282
288,30.8750946845199
287,30.6470636849461
286,30.4419260947656
285,30.4407091063227
284,30.490108538746
283,30.5406552900195
282,30.5763769200424
281,30.6119335285935
280,30.6463206159388
279,30.675239284723
278,30.7044759382157
277,30.7340324795355
276,30.7592330314768
275,30.7179248776348
274,30.6443593093399
273,30.571827445706
272,30.5117384495646
271,30.459687891281
270,30.5821194305246
269,30.780154855308
268,30.9787407861715
267,31.1566134207938
266,31.3338501493012
265,31.4669214612916
264,31.5629742191002
263,31.6601161855835
262,31.7583496672014
261,31.8634224844855
260,32.2903937064651
259,32.9323928244878
258,33.6154955334362
257,34.300059819507
256,34.9855100998074
255,35.4096750177822
254,35.6008693585284
253,35.7934545834195
252,36.0091726787529
251,36.2263644971414
250,36.376362278793
249,36.4326974480196
248,36.4901851944538
247,36.5650273839862
246,36.641067112808
245,36.7534194977936
244,36.9230885437178
243,37.0750780442933
242,37.2284964795179
241,37.4032630964613
240,37.6524508181328
239,38.0621371636181
238,38.4497254040332
237,38.8387936300414
236,39.2586326022369
235,39.54569104526
234,39.4320176782704
233,39.2848814022396
232,39.1389013494867
231,39.0017754173471
230,38.9318947505194
229,39.1175658354892
228,39.3352490594089
227,39.5767647780468
226,39.8200362210671
225,40.022315399007
224,39.9580292302438
223,39.8520920311095
222,39.7565063928546
221,39.6622437069566
220,39.5852759516383
219,39.8229705006753
218,40.1745718865032
217,40.5287278568371
216,40.8591011597911
215,41.1844360646363
214,41.3396696288388
213,41.4077040337089
212,41.4617300401077
211,41.5168863315804
210,41.58702658685
209,41.5452248797624
208,41.4256858693585
207,41.3076490313998
206,41.1992590224744
205,41.0842568982492
204,41.0806599411646
203,41.2232889839339
202,41.368128644634
201,41.4970480593376
200,41.6277743013916
199,41.7205694953031
198,41.7113008330356
197,41.6895695525297
196,41.6690750708934
195,41.6614984343328
194,41.81831057445
193,42.4933094879696
192,43.2391784250667
191,43.9466592342992
190,44.6563278225886
189,45.3323880502056
188,45.6317955865118
187,45.8604129558527
186,46.0908446211417
185,46.3447467031373
184,46.5647808802279
183,46.6446329380835
182,46.7061259977372
181,46.7540387446828
180,46.8025247109826
179,46.9068125442089
178,47.8327528924354
177,49.115877847153
176,50.4641787979075
175,51.7504739935315
174,53.0381927560884
173,54.3571062840492
172,55.5867641938875
171,56.8146096660112
170,58.1020610758378
169,59.326243749836
168,59.6042473578024
167,58.4373585176933
166,57.285993230414
165,56.1346751002371
164,54.9493733764069
163,54.53046704572
162,56.0737399933305
161,57.784151303696
160,59.4169844505448
159,61.0495860145344
158,62.5343430218338
157,63.1872898566858
156,63.7601360881772
155,64.3006031931796
154,64.8424450496901
153,65.4576636246644
152,66.4233791738244
151,67.4989271683772
150,68.5756653683928
149,69.6535971358155
148,70.7835731532086
147,71.6735264592583
146,72.4600859243965
145,73.2472067274396
144,74.0348897129692
143,74.867003055429
142,75.5582229082044
141,76.1342072810547
140,76.7113886283646
139,77.2897690034614
138,77.9048628114053
137,78.5358626995911
136,79.2944155945035
135,80.0595326954832
134,80.8261781885426
133,81.6374346496852
132,82.3387832403144
131,82.6697623259007
130,82.9532179024803
129,83.2381569240151
128,83.5483053855532
127,83.8798042612411
126,84.8530560261328
125,86.0221460518258
124,87.1935151747884
123,88.3671715670905
122,89.5450305376373
121,90.9751810413365
120,92.5997967577552
119,94.3096204249129
118,95.9492248802475
117,97.596237488118
116,99.4479194996013
115,101.635313238024
114,103.82572878934
113,106.015726041232
112,108.205304593671
111,110.545747808665
110,113.464813063879
109,116.440703284242
108,119.539905834549
107,122.498246671522
106,125.201056777666
105,125.673916471323
104,125.565046773077
103,125.457206720937
102,125.350396391338
101,125.011676138015
100,124.674367224189
