Unnamed: 0,Unnamed: 1
Bri Bri Board,
,
,
Raman Shift / cm-1,INT
3200,31.7655561554069
3199,30.8317683326752
3198,29.4500701643911
3197,54.9628781009117
3196,98.9310721310108
3195,108.010662112477
3194,106.801488728689
3193,105.996811722888
3192,86.8427261874403
3191,42.39405594402
3190,27.0143404004381
3189,26.4944392355938
3188,26.1535855484549
3187,26.0275838270006
3186,26.3676384962312
3185,27.6727611941568
3184,29.6442586191305
3183,30.5847168313797
3182,30.4896566616366
3181,26.4738787969622
3180,22.724745459013
3179,21.1898407322192
3178,20.0257779818663
3177,17.1532880745741
3176,-13.9666393099271
3175,-41.3810811116564
3174,-10.8171239830801
3173,2.89657635771393
3172,-35.4479426777937
3171,-9.83419038187638
3170,63.4393198127288
3169,80.5035699589042
3168,79.4220022647843
3167,78.3167429799371
3166,77.211832609968
3165,76.1432595900751
3164,94.737002614927
3163,126.785902981773
3162,109.57031651317
3161,69.0469778336729
3160,2.03227599778907
3159,-49.9552076683352
3158,-52.035935823319
3157,-51.9071087111115
3156,-51.9719311839423
3155,-52.2989078551654
3154,-57.9459443704846
3153,-111.607244529639
3152,-157.407075362096
3151,-130.697421957304
3150,-110.635817508186
3149,-111.434010908313
3148,-22.0834566460932
3147,132.92294625936
3146,216.77757417851
3145,320.83655333758
3144,705.526415180467
3143,916.943079453355
3142,524.82387727749
3141,268.243201252281
3140,263.052334713571
3139,223.437990176294
3138,165.549503992869
3137,149.978800842751
3136,152.028952035732
3135,175.508601210646
3134,195.03195580705
3133,194.222716722428
3132,157.312976935912
3131,71.6788830935907
3130,38.0446052964927
3129,36.737846092346
3128,35.3970275315964
3127,34.0846158336303
3126,33.0506021413593
3125,44.7895920507117
3124,93.5357924264225
3123,144.227539963356
3122,194.407619262129
3121,188.863496743226
3120,136.362168544252
3119,136.99753304535
3118,154.404582210973
3117,116.222108037299
3116,72.3309850724697
3115,65.8797065081535
3114,64.4314328251327
3113,62.98490690054
3112,61.5401268751084
3111,60.0970908904446
3110,58.6557970890266
3109,57.9914231546396
3108,75.1308743025471
3107,89.984197820968
3106,31.4039520371513
3105,-21.9766317607751
3104,13.450212168492
3103,46.8968680472184
3102,47.1879426604424
3101,54.4534424592245
3100,75.6825765207554
3099,96.7634432680808
3098,117.481143287497
3097,137.892371715453
3096,156.864771994489
3095,160.248162467249
3094,165.741003462854
3093,219.71519815809
3092,262.419371613738
3091,225.339695274113
3090,173.800706507673
3089,108.011981408538
3088,75.8613880998494
3087,94.6440087838048
3086,91.8004122291285
3085,69.435869619958
3084,60.6049151939245
3083,59.9639029823411
3082,73.9409917341793
3081,89.0545917175402
3080,73.85580937657
3079,51.8689629687815
3078,30.1381553809673
3077,13.2090920370511
3076,10.6752018740072
3075,21.9060448784326
3074,59.0196004697245
3073,79.9668509364161
3072,78.4945150961963
3071,107.216590111042
3070,162.859508705595
3069,193.678648436325
3068,208.421533206967
3067,197.513633677063
3066,177.299153246288
3065,171.206301285819
3064,164.951323618962
3063,131.462352808632
3062,96.3682245087443
3061,74.6960353031254
3060,58.8202134930773
3059,56.0835233305171
3058,54.4008263603318
3057,52.9210514941837
3056,57.5578796300308
3055,73.068371035921
3054,104.526543585501
3053,154.0383627596
3052,167.321477100059
3051,148.332299442627
3050,150.043942294408
3049,164.43406105049
3048,178.887165263476
3047,191.525038695854
3046,180.462089814436
3045,162.64513054122
3044,157.656247342748
3043,157.303266528908
3042,169.031218077982
3041,178.171465373172
3040,162.962259588506
3039,138.965465209866
3038,90.5956229917679
3037,62.9815682874196
3036,103.662436835661
3035,127.166359682163
3034,96.0611975922479
3033,83.9584480630346
3032,111.962867319524
3031,117.144683102288
3030,85.1381152930347
3029,112.4931318535
3028,217.737527302915
3027,229.245094449604
3026,151.923063057578
3025,155.202158707294
3024,227.883361817318
3023,335.636329958032
3022,460.5887801117
3021,447.265272375244
3020,358.594479044285
3019,298.223144493995
3018,259.016855608894
3017,378.585613311307
3016,543.745262280408
3015,488.441955071309
3014,363.297347219804
3013,299.653033151024
3012,251.311044284801
3011,173.055474963058
3010,101.628650272327
3009,131.581246762677
3008,175.877593649444
3007,159.18162023976
3006,133.053779435539
3005,126.776174207181
3004,121.215547702559
3003,95.6683152910788
3002,76.7101556645469
3001,106.965785109624
3000,137.286458918306
2999,138.724023175385
2998,132.205931062814
2997,106.618104614107
2996,85.6296979746997
2995,92.973932794006
2994,98.9005045153786
2993,86.2527566760506
2992,80.8072545842958
2991,111.426782394657
2990,138.477366730451
2989,138.626172816972
2988,138.468210601473
2987,147.343861069244
2986,154.836361797203
2985,153.998358444042
2984,152.213177348234
2983,149.884352877722
2982,147.64617935829
2981,145.912306895536
2980,139.601489289123
2979,115.781723257642
2978,94.8678195394407
2977,91.1680633786658
2976,95.7373394362954
2975,126.027706673175
2974,152.387255927426
2973,152.787766208122
2972,150.405139557604
2971,147.748982453223
2970,147.033088524104
2969,154.737277171428
2968,161.518634001114
2967,160.08773763614
2966,166.354045010696
2965,213.879651990004
2964,253.427826660213
2963,226.943069953564
2962,200.514180938887
2961,222.311197212249
2960,249.196105314702
2959,268.860976848501
2958,285.547598164161
2957,285.655638944344
2956,281.346820984942
2955,268.91957070733
2954,255.666627098975
2953,251.081588241788
2952,247.873445111442
2951,236.493326563781
2950,221.673178652467
2949,185.829067514309
2948,144.234808099216
2947,130.728628801495
2946,128.198441067845
2945,125.828873355453
2944,123.799642348369
2943,134.399796049131
2942,152.071548638502
2941,157.513707811644
2940,155.084221674505
2939,157.602230755032
2938,163.523387164456
2937,165.386887675971
2936,163.33340957656
2935,143.447427234482
2934,102.605749267981
2933,78.0495415696215
2932,75.6122962458614
2931,70.2042942464577
2930,58.9139905997862
2929,58.6627942383973
2928,82.4243448719194
2927,109.010372092101
2926,142.497021647258
2925,166.99906877861
2924,158.424312294213
2923,148.161994171158
2922,144.086502567474
2921,140.962826624157
2920,138.010560406935
2919,135.151222527429
2918,132.793064651276
2917,130.583878527201
2916,128.463803025891
2915,125.719421218719
2914,105.863131747089
2913,79.3980149148478
2912,73.5083758224397
2911,80.1240960571325
2910,110.20813154221
2909,157.471278441789
2908,173.206751006259
2907,152.585277967798
2906,142.216046203067
2905,147.34726201217
2904,150.421686004482
2903,148.315416085043
2902,145.929891908984
2901,143.211870858599
2900,140.443996511751
2899,137.313802566828
2898,135.104908927949
2897,139.303902175681
2896,142.179736161597
2895,116.539870435173
2894,85.5956484602393
2893,97.5640915429502
2892,126.29856871985
2891,131.384656833794
2890,121.716933962832
2889,115.602656477854
2888,112.527413581854
2887,100.961671377845
2886,76.7985578182065
2885,61.1443100714107
2884,65.1895983897232
2883,65.1819941552392
2882,49.7303283215385
2881,32.0887263341677
2880,8.77298435457301
2879,-12.9214424890718
2878,-18.4555157784564
2877,-17.8697722554681
2876,31.9672947733418
2875,98.8761416604633
2874,126.977592209593
2873,131.997312808028
2872,130.050571047959
2871,120.976113720217
2870,119.241278522151
2869,130.322078018593
2868,135.92265848264
2867,127.297052687123
2866,121.481444552049
2865,131.082839739596
2864,141.139745386139
2863,141.328411871927
2862,140.669994434977
2861,162.091369041073
2860,190.759103055193
2859,200.093098191983
2858,197.967344824689
2857,192.165872522518
2856,182.46505275404
2855,173.438494442686
2854,165.042365048719
2853,157.875859974737
2852,154.939208805194
2851,150.886455611048
2850,137.255550908366
2849,122.430796648166
2848,112.519259455826
2847,104.432293417801
2846,111.630868187723
2845,127.576782937391
2844,140.114310827649
2843,148.973044270691
2842,158.113868143263
2841,167.96535433349
2840,175.144410508351
2839,173.005554419321
2838,170.012307197477
2837,166.596121877759
2836,162.646324335155
2835,151.052200302648
2834,137.054726733109
2833,129.867933513837
2832,127.728766555297
2831,132.704096020328
2830,148.380058458351
2829,159.438596650257
2828,157.437036652978
2827,150.638100466151
2826,122.787334751212
2825,93.4357127334447
2824,88.7947782937009
2823,91.6971815209164
2822,94.6744444848285
2821,97.6259038762717
2820,95.6090812347296
2819,87.2243816925321
2818,83.6810038682938
2817,92.1815289386019
2816,101.092825632642
2815,109.559814038147
2814,117.115512475162
2813,113.746925146101
2812,106.742051004249
2811,98.9653054969632
2810,90.891829446914
2809,85.0999169689025
2808,82.9066270819163
2807,81.7679972824251
2806,83.6532750505086
2805,84.1871951379905
2804,73.601503309813
2803,61.2649289636988
2802,52.4984055648624
2801,45.1477566271847
2800,43.1923214554015
2799,46.1621289487701
2798,53.5196049115534
2797,71.1583834292018
2796,84.2169421346686
2795,74.7353263843132
2794,63.5656406452665
2793,66.7027842139392
2792,74.6813654476187
2791,76.6882972921003
2790,74.4664296803225
2789,70.338399874152
2788,62.843684869641
2787,57.0370826310465
2786,58.6343252219674
2785,60.6810878509561
2784,59.8143299967424
2783,58.1332570923937
2782,53.5794975437317
2781,47.1645260560457
2780,42.5109685680852
2779,40.3586215845574
2778,42.6463452643846
2777,62.0774143579546
2776,80.8822533810218
2775,71.9594769168132
2774,55.2521568677563
2773,55.3687899505957
2772,65.7865462150358
2771,70.0189354838778
2770,63.5845828199547
2769,59.8680574583896
2768,69.3552098136256
2767,79.9577733529207
2766,80.9331906238916
2765,78.8333528000296
2764,79.2477730443118
2763,81.6167338128257
2762,81.2390603431501
2761,74.8861439051021
2760,68.9207653682098
2759,66.3736699777738
2758,64.0898919532045
2757,52.7813011842824
2756,37.4018572537751
2755,23.6440325977643
2754,12.3137788319001
2753,1.45735981226338
2752,-8.96109874503838
2751,-18.6506483768694
2750,-22.2964981924006
2749,-24.4001594327164
2748,-19.0433332261554
2747,-8.81277979793644
2746,-1.37183238384828
2745,0.753801088564789
2744,7.78695338697378
2743,42.6282040672137
2742,80.5815969535351
2741,93.9749426014788
2740,96.5207307442476
2739,96.9021217334555
2738,94.4379940053042
2737,91.9207878463377
2736,89.2205580419228
2735,84.8382121653984
2734,57.6485874186022
2733,23.4636615954619
2732,20.7716644241543
2731,46.60928246031
2730,65.1911285311755
2729,64.2479611720849
2728,62.1877492492511
2727,59.9304070478933
2726,57.7349169313993
2725,66.2967417825479
2724,82.3529667033907
2723,93.401796114498
2722,91.1324335138453
2721,89.0166833288372
2720,93.094196982165
2719,98.4094344886361
2718,97.0902445163475
2717,91.5266397568062
2716,92.9195579790558
2715,108.420170572007
2714,121.181573140555
2713,114.87072504293
2712,105.267490408899
2711,99.6018387147312
2710,96.6108863158433
2709,96.2868286470891
2708,101.464787942554
2707,105.954936567993
2706,104.890515673698
2705,102.867964684692
2704,102.91473596853
2703,104.331699342939
2702,108.047789530196
2701,116.904039987632
2700,123.962445482519
2699,116.595550821768
2698,106.629950743305
2697,98.6906540921101
2696,92.05940302218
2695,86.578115264382
2694,83.8895955375595
2693,80.9556592105396
2692,73.4186115285352
2691,64.5434483103232
2690,63.1998666846063
2689,68.6143235672647
2688,71.3776427941129
2687,66.0116229781339
2686,59.9977108868474
2685,54.3718083201199
2684,48.8919792568113
2683,55.4422985854418
2682,76.3272220513444
2681,93.783923304613
2680,93.6346541027806
2679,91.2450564103134
2678,82.8546571813216
2677,71.3513112754876
2676,56.120302109018
2675,34.7346935042938
2674,16.9068301319482
2673,25.7000605533311
2672,39.9490102696575
2671,44.556059857059
2670,42.4966971021386
2669,41.1129900438043
2668,41.7268450171946
2667,42.7829356627445
2666,48.9845758928463
2665,56.9357566241121
2664,61.7046057055638
2663,62.6358389090376
2662,64.6244811882995
2661,71.6254879788031
2660,79.3589893702307
2659,88.9339638913862
2658,99.6045600793677
2657,103.749107458148
2656,90.463034498097
2655,77.6883451411675
2654,69.9810289631901
2653,63.5383547829171
2652,59.3880208289642
2651,57.8297301217854
2650,56.5173822346501
2649,56.4618512626032
2648,56.5550956447398
2647,55.4245286547203
2646,53.5748486250868
2645,56.4217743839166
2644,71.4617824726462
2643,86.8397297074305
2642,97.9453461331058
2641,107.159337606535
2640,108.184375459275
2639,97.0023882391137
2638,86.878806589981
2637,82.4375444783036
2636,78.9718003656387
2635,77.6787803874483
2634,78.101301264653
2633,75.6753189913742
2632,62.4332121639116
2631,48.7865720405449
2630,42.6387731690048
2629,39.9140914983708
2628,37.5034872471515
2627,35.7636618619161
2626,34.0228761405983
2625,31.8599911534482
2624,29.6220299353797
2623,38.857579033049
2622,63.4501019819518
2621,85.8824592267445
2620,94.7326202157339
2619,101.013789498947
2618,102.371200396069
2617,99.4074150366929
2616,95.7617067592885
2615,89.0327913801999
2614,81.9988002763688
2613,76.1647614688527
2612,71.0560345164141
2611,63.6164138769182
2610,49.2457775939996
2609,34.7989112494429
2608,28.6812418797896
2607,26.1688745498893
2606,24.5549737509118
2605,24.8947292148335
2604,25.1515693614854
2603,23.4576390058539
2602,21.1779216188289
2601,19.0527053232824
2600,17.1644721479605
2599,16.0373144803715
2598,22.2669818861149
2597,30.2722723387001
2596,36.7604046671311
2595,41.2878597315977
2594,45.7892135984315
2593,50.433275735697
2592,54.9357492333488
2591,62.1616768745726
2590,72.1712046915805
2589,80.3202361928221
2588,78.5614425896344
2587,75.2684936876169
2586,64.7162030689594
2585,47.6839035153355
2584,34.1490703231395
2583,36.6531256522032
2582,41.1959919832375
2581,48.7429421702681
2580,58.5364419727205
2579,63.2221144118223
2578,46.8000059930903
2577,28.4249454943407
2576,10.6884583221606
2575,-6.21448738133488
2574,-16.0625079130435
2573,2.3078662958333
2572,23.6627757620306
2571,41.7619620620761
2570,58.4732480163794
2569,71.0930390459604
2568,67.3727249618954
2567,62.0311511876936
2566,63.8143732172893
2565,70.2193814975747
2564,75.5724695261853
2563,76.0459976887223
2562,75.9285367272006
2561,73.1164433254354
2560,68.3928369260203
2559,63.6869620813325
2558,58.5348699492699
2557,53.2690684365787
2556,52.9645761002336
2555,56.4071135369392
2554,58.5877701034811
2553,54.2221250287879
2552,49.0579620656141
2551,45.5286270894123
2550,43.4557079317668
2549,41.5537672044312
2548,40.6034391764416
2547,39.7949413589584
2546,40.1050196472226
2545,41.6394033729605
2544,43.8344921455541
2543,51.3639294881008
2542,60.1732487190562
2541,59.4130138736484
2540,46.5890958420833
2539,34.9164997249363
2538,34.7476151854334
2537,37.5484553463557
2536,42.9108896383238
2535,52.5969741576589
2534,61.9562631986023
2533,66.2204563706384
2532,68.6996163492402
2531,68.4286729523255
2530,62.3607918742658
2529,56.5330535400531
2528,63.02893224388
2527,75.544475193203
2526,81.8224004915048
2525,69.3748558518859
2524,55.7860333811599
2523,45.4135055691942
2522,37.1227732435964
2521,29.5543998317182
2520,25.9752615729705
2519,22.9917741526931
2518,21.2776411847381
2517,20.7311533836717
2516,20.0484903407933
2515,18.3166065646764
2514,16.3368663982318
2513,19.2612037175665
2512,29.0631766868402
2511,38.2114676395887
2510,38.457447697907
2509,35.9346508406851
2508,33.7153014251881
2507,32.2298697872012
2506,30.7649863376809
2505,28.4310673060864
2504,25.6522495680604
2503,23.4352918493273
2502,23.0943538237195
2501,22.9342804070402
2500,25.9231051058506
2499,31.6503746485232
2498,35.1748582881498
2497,22.0734873670227
2496,5.58077989442598
2495,-0.853078899444142
2494,10.0519132464622
2493,20.8097877510702
2492,22.8161878760981
2491,21.3297618891206
2490,18.8195177113966
2489,12.9119781536568
2488,6.67050535616755
2487,4.73670859258777
2486,5.71504930298477
2485,7.96518643142798
2484,17.4167892660273
2483,27.9496433422414
2482,31.57644645916
2481,25.7269795245614
2480,20.1932542429915
2479,19.704408259845
2478,20.8710925546737
2477,21.80506483603
2476,22.1043637444902
2475,22.3045780152012
2474,15.7508467807661
2473,4.9116416606027
2472,-4.48483283324796
2471,-3.48766954684738
2470,-0.286598058590103
2469,2.89134775112494
2468,6.04118916542664
2467,9.08970864174407
2466,9.80582597849402
2465,9.47235538967031
2464,8.88320472916197
2463,7.2774617195901
2462,5.57011252346887
2461,6.04411293262658
2460,8.75351144857373
2459,11.368996750628
2458,13.0079955468587
2457,14.3818281747904
2456,14.3656231399232
2455,10.9311979414052
2454,7.29214882846792
2453,5.58880361677073
2452,5.26567368509092
2451,5.88160086060262
2450,12.956432011935
2449,21.2327214393685
2448,26.0053606810742
2447,24.6251207978473
2446,23.3964462212416
2445,34.3040511261679
2444,51.7509948442739
2443,66.2393321703015
2442,65.928400395118
2441,63.546496727221
2440,61.4696776241977
2439,59.83524486747
2438,58.1511497376014
2437,55.0292951345403
2436,51.3021253562626
2435,47.9496918437975
2434,46.0933904711176
2433,44.4273628689237
2432,36.7268061306973
2431,20.6773518898334
2430,5.20651990252511
2429,-0.00279848645250785
2428,-1.41397324485943
2427,-2.86839355901528
2426,-4.53189712421077
2425,-6.21338615513915
2424,-7.98448091338173
2423,-9.83142599218556
2422,-11.4130971743605
2421,-7.74379247241444
2420,-2.02050588082507
2419,5.84541180703749
2418,21.5128910706263
2417,37.9479394567774
2416,52.5575589946066
2415,64.1252264799946
2414,75.6024057512427
2413,94.4187011847676
2412,116.762046291397
2411,130.743431928153
2410,109.043658812753
2409,83.0915000574267
2408,66.1767366120825
2407,64.3600061381235
2406,62.9330795938448
2405,68.7765161578525
2404,78.3437113849528
2403,85.0153717403733
2402,75.8196536095989
2401,63.8333020806831
2400,55.323907941895
2399,53.4224417223767
2398,51.7395663686901
2397,55.2408100973558
2396,61.8898782249174
2395,67.7400032794166
2394,66.9048528333287
2393,64.503043162134
2392,60.0532023264792
2391,49.5795643101577
2390,39.0314556151883
2389,27.5876473249135
2388,14.9107890115934
2387,2.67245413327764
2386,-7.67029124741233
2385,-17.5873802455861
2384,-26.2852897390641
2383,-30.6942092878522
2382,-34.7018783601765
2381,-34.4555759813911
2380,-27.6317350993792
2379,-20.8766146127932
2378,-25.911540017017
2377,-37.2693667272836
2376,-43.9395330118858
2375,-10.7630094439268
2374,31.9023853766837
2373,62.5433963079306
2372,62.8662669196359
2371,61.5308569100837
2370,53.9141560904497
2369,39.9480951039423
2368,26.4025834070169
2367,21.8416155069911
2366,20.8537666006678
2365,21.0340189140395
2364,28.057496810583
2363,35.9410074117278
2362,37.2206575945004
2361,24.4229603804013
2360,11.1473460013164
2359,13.1418474325074
2358,28.4066336444542
2357,43.2347846351821
2356,46.5853789476785
2355,46.2046362812484
2354,45.2666059873736
2353,41.5896280935711
2352,37.5891068962436
2351,31.1028707401198
2350,19.6270808072227
2349,8.08182306665097
2348,6.85962408254106
2347,14.2291966782361
2346,20.96231854094
2345,16.0485895513309
2344,7.08726344097582
2343,-0.993862681543468
2342,-4.74581268741775
2341,-7.82855293065933
2340,-8.18681610060966
2339,-2.22549763880377
2338,3.94392093703927
2337,5.99196564690371
2336,4.02663450894263
2335,2.30902554744059
2334,5.81878429129623
2333,11.5462411481185
2332,16.6023801029563
2331,17.1468262056027
2330,16.8916882148113
2329,16.86748691899
2328,17.4852311549324
2327,18.1041231154933
2326,17.9837209178455
2325,16.7868262856731
2324,15.6785356821605
2323,19.8978007154736
2322,27.3247722146686
2321,34.1281638179619
2320,33.8772088580855
2319,31.6915333619124
2318,30.8415628309624
2317,36.4349546312419
2316,42.8044917426117
2315,47.3965345073309
2314,48.2325912691896
2313,48.8869805468614
2312,50.5268777242937
2311,53.1818323073351
2310,55.6594710081896
2309,54.2423557548462
2308,50.765776243788
2307,47.5392557705645
2306,46.4668467571662
2305,45.9345815348863
2304,44.9960307066242
2303,42.3259182109028
2302,39.5044067524303
2301,36.4256927826139
2300,32.909913584668
2299,29.4573035623843
2298,27.0376922856711
2297,25.9062224467392
2296,24.7978809424257
2295,24.1879661382536
2294,23.8723759467356
2293,23.4912988630589
2292,22.3409520867594
2291,20.9538920313597
2290,19.6440856104409
2289,18.6535923371837
2288,17.7153403796826
2287,15.4411728227966
2286,9.05066736813824
2285,2.40792150239243
2284,-3.08381605341007
2283,-7.109626791796
2282,-11.1048696039552
2281,-14.5296876164221
2280,-17.5728112055646
2279,-20.1566929543003
2278,-9.8356220250535
2277,5.89761493869761
2276,20.9416304960812
2275,28.9071972432159
2274,34.868491519625
2273,39.5984171163684
2272,38.977352781735
2271,37.5859615354006
2270,36.176382271103
2269,34.733073849335
2268,33.2885341566635
2267,34.1321487569428
2266,38.9199413470874
2265,43.6334630224562
2264,45.1784698837981
2263,43.596712912904
2262,42.032823672229
2261,41.2576043197036
2260,40.8864600754095
2259,40.6096753250555
2258,42.008356579894
2257,43.9712788682395
2256,45.4617679691457
2255,44.1412129425296
2254,42.2660658402254
2253,40.5346967896856
2252,39.5234711780991
2251,38.6046429832586
2250,37.3855369814928
2249,35.3767393924443
2248,33.3349123286355
2247,32.0552201685533
2246,32.1331039462139
2245,32.2166877645831
2244,32.4607882212028
2243,32.87082839331
2242,33.2718425841969
2241,32.4937384602946
2240,30.9090411047752
2239,29.3412874253192
2238,27.6160536514632
2237,25.827313980177
2236,23.9364451932389
2235,20.8294427076804
2234,17.3753546370671
2233,13.8525491108697
2232,10.3502478074312
2231,6.93228897739174
2230,3.88382730393381
2229,2.33840560871301
2228,0.956906804915183
2227,-0.54508477489239
2226,-2.40831305742813
2225,-4.29421685208005
2224,-2.55359081490797
2223,7.30830408035731
2222,17.4263854426013
2221,21.6956662867123
2220,18.79042511461
2219,15.8652440267869
2218,15.9880496402918
2217,18.8989992148909
2216,21.7782350002128
2215,21.2667093023456
2214,18.5041978660829
2213,15.7805225658974
2212,14.4018273775646
2211,13.6841324152188
2210,12.9934835604102
2209,12.7880962135056
2208,12.7614261824259
2207,11.8823452899197
2206,1.45370895150313
2205,-11.5997133275802
2204,-23.459943711579
2203,-26.4469418328382
2202,-27.5920163770422
2201,-29.5404229495045
2200,-35.9204520973547
2199,-42.9704273465542
2198,-48.1420521410078
2197,-45.5909902125817
2196,-42.2075640521379
2195,-39.9265439445625
2194,-41.1123946630339
2193,-42.5499085272643
2192,-41.0360336815236
2191,-32.2988430257727
2190,-23.2595795770665
2189,-17.4877895400571
2188,-17.9295515901516
2187,-18.5227020523173
2186,-19.4773662715278
2185,-20.9704881843365
2184,-22.466597882936
2183,-23.9105057433829
2182,-25.2945956985832
2181,-26.6763391633723
2180,-25.1151061188552
2179,-20.9457818140702
2178,-16.8289354857533
2177,-18.7938047336623
2176,-24.986139721665
2175,-30.9514102940405
2174,-30.0878405415598
2173,-24.7615124166438
2172,-19.5279516727252
2171,-18.3123852668482
2170,-19.2762108590036
2169,-20.2417895908393
2168,-21.2607870173185
2167,-22.3030165497162
2166,-23.3479543986499
2165,-24.4350330041801
2164,-25.5411545700189
2163,-26.4325389028812
2162,-23.5072254536162
2161,-19.2197014085522
2160,-15.2590723268146
2159,-15.2425348639294
2158,-16.3871844218874
2157,-16.9254910986841
2156,-10.6716745028218
2155,-2.37032432992663
2154,4.90966151955037
2153,2.64672729238784
2152,-1.94390172366062
2151,-6.07557112821578
2150,-7.23846609301829
2149,-7.74109611562662
2148,-8.04823240337026
2147,-6.86042793715922
2146,-5.36573209751356
2145,-4.06302128967546
2144,-3.68965366409089
2143,-3.46531894952101
2142,-3.59451753379262
2141,-6.02036426452107
2140,-8.78863241513849
2139,-11.446071755308
2138,-13.4796029633274
2137,-15.3820944639939
2136,-16.0316641750435
2135,-9.7707393572056
2134,-2.40613767248528
2133,3.95663332377617
2132,3.0403623939927
2131,0.942614758568779
2130,-0.277458047514407
2129,4.12178973094487
2128,9.49464145493079
2127,13.9369187678585
2126,13.430327768163
2125,12.1663904971279
2124,10.771940353611
2123,8.6741144395009
2122,6.50945609602558
2121,4.31042217434514
2120,1.79476865142793
2119,-0.707478026774392
2118,-2.85169818301792
2117,-2.56678507724492
2116,-1.80226617746996
2115,-1.51529044393817
2114,-4.40466816954613
2113,-7.95863324456113
2112,-11.4514483846457
2111,-15.2008574810014
2110,-19.0691925918478
2109,-22.4588631355022
2108,-22.3220937446573
2107,-21.4341532995949
2106,-19.7187701917027
2105,-11.1837390183539
2104,-1.0229117490707
2103,8.32786558398574
2102,6.91610460206485
2101,2.65803591982039
2100,-1.45191830103649
2099,-2.88817131655255
2098,-3.53365939068939
2097,-3.88865654298764
2096,-0.0707642212899992
2095,5.14678802660788
2094,10.2507087976765
2093,11.194650396421
2092,10.5792444766644
2091,10.0322529929131
2090,11.0404905347384
2089,12.7250869474549
2088,14.3717874750193
2087,15.2112049229425
2086,15.640924412688
2085,16.0369681057287
2084,17.1807585291436
2083,18.7795119390496
2082,20.3357349538127
2081,18.5091913346632
2080,14.0798667969261
2079,9.67934492601945
2078,5.56373644020137
2077,1.7299238242519
2076,-2.16599991615906
2075,-6.64259363537119
2074,-11.9050335040783
2073,-17.1133367249597
2072,-19.9308240860485
2071,-19.0402968998998
2070,-18.1579195255239
2069,-15.9805161562358
2068,-11.4110917589574
2067,-6.8242998022716
2066,-3.01894548114653
2065,-1.0919045225618
2064,0.732082244997515
2063,2.07607771531589
2062,1.9711042049578
2061,1.72702348429512
2060,1.90302169414818
2059,3.69606898240456
2058,5.63313190888472
2057,7.94482998779906
2056,12.5022734960766
2055,17.3352037374565
2054,21.552324497661
2053,21.5772657815258
2052,20.6963679938559
2051,19.9983070499704
2050,21.5888930449767
2049,23.8114595837851
2048,25.7724149448916
2047,23.1492452920337
2046,18.7164220236718
2045,14.3218415838808
2044,10.1508264177046
2043,6.11454743313305
2042,2.12424079706812
2041,0.179978956745324
2040,-0.23904961507119
2039,-0.660115187188511
2038,-1.07004025700269
2037,-1.46820958672881
2036,-1.87851952047777
2035,0.745428766737967
2034,8.44507103433229
2033,16.1788624468346
2032,21.9255008577406
2031,22.9638932359253
2030,23.8050489577741
2029,25.3325945243436
2028,29.1422459412032
2027,32.9870507804142
2026,35.2355153452827
2025,28.559201537659
2024,20.5501879878887
2023,12.5837752796136
2022,4.74112370543527
2021,-3.29032676869018
2020,-10.7022624035335
2019,-7.67982839675611
2018,-1.05293140757816
2017,5.24529152052753
2016,7.54972727517496
2015,7.51274350279593
2014,7.4765745918401
2013,9.02182203044214
2012,11.7866251999386
2011,14.6400829988212
2010,16.2948438304551
2009,16.247451603276
2008,16.189237791004
2007,15.5554585394784
2006,13.6439418586328
2005,11.6897083716951
2004,10.0369185784955
2003,9.36868340362046
2002,8.79075011621702
2001,7.85064536830009
2000,4.52508611149288
1999,0.80061167669063
1998,-2.43579348844947
1997,-0.427980172435345
1996,3.13689697936688
1995,6.46024856689414
1994,5.9926048138953
1993,3.599937362627
1992,1.26103335048514
1991,1.48580403692566
1990,3.9054988788759
1989,6.22053744654981
1988,6.83098607570522
1987,4.69483204819988
1986,2.52895109778875
1985,3.1162959071301
1984,11.3379290904981
1983,19.9255067014419
1982,26.4360149152539
1981,24.5170837941566
1980,21.4568856219694
1979,18.4839852870409
1978,16.2908763479355
1977,14.2370813298155
1976,12.3677509179501
1975,14.8197267063091
1974,19.0759953930139
1973,23.4503245174709
1972,24.6264013068993
1971,23.2789849066474
1970,21.9331684535239
1969,20.2197171607095
1968,17.9475273296086
1967,15.7154853113046
1966,16.7978741193545
1965,27.8934398796834
1964,40.0005637854622
1963,49.9779177507145
1962,47.9637601010036
1961,44.1828881410843
1960,40.3909867727741
1959,37.3069947137964
1958,34.51773981606
1957,31.734243655034
1956,28.4024483521414
1955,24.6388103878668
1954,20.8874688256581
1953,18.149631579322
1952,16.5416669891332
1951,14.9384915261762
1950,13.2463381007417
1949,11.3888225866669
1948,9.5563084284687
1947,8.39897156191601
1946,10.7191522009335
1945,13.5213247626816
1944,16.2229268853614
1943,16.6211596448208
1942,16.2871595197286
1941,15.9832666694218
1940,18.2479828861844
1939,22.1412192165758
1938,26.0265408219185
1937,27.8047640739997
1936,26.3381688702463
1935,24.8575680494209
1934,26.0530486122392
1933,35.0080867610635
1932,44.4054706092587
1931,52.9758785128604
1930,55.9292545293487
1929,57.8385743195927
1928,59.6094337941979
1927,58.9236373288485
1926,57.3344671332198
1925,55.7491849270466
1924,51.1542200300011
1923,43.8271602079413
1922,36.5283811626826
1921,31.5931988028145
1920,31.9259309742009
1919,32.4519473791631
1918,32.3083358204911
1917,28.8312688480613
1916,24.9924783071728
1915,21.2310424494595
1914,18.2837112574055
1913,15.5932345763594
1912,12.9386261858657
1911,15.597718528996
1910,22.1798294207314
1909,28.7429240880567
1908,32.3873613268165
1907,30.5036644601582
1906,28.4901769524812
1905,26.6407680084699
1904,25.538634169308
1903,24.5302628543634
1902,23.353161470161
1901,19.6405031009231
1900,15.0864534787817
1899,10.5439038817644
1898,7.03605260123609
1897,4.38808290391883
1896,1.75073049278044
1895,-0.676968838384336
1894,-2.66782112349521
1893,-4.63930759526846
1892,-4.93779236976416
1891,3.86136641798675
1890,14.004453943538
1889,23.8054861852894
1888,27.1806306586059
1887,28.0150899505724
1886,28.8449285706327
1885,30.3523283071252
1884,32.556144222268
1883,34.7527829254275
1882,36.2027144940726
1881,35.6746716652852
1880,35.0389314251481
1879,34.600779287567
1878,35.5986073397236
1877,36.8752055803031
1876,38.0397479487294
1875,35.1386844152048
1874,30.1592307249632
1873,25.1878002440613
1872,24.3452904390772
1871,29.3120716101278
1870,34.3228087133963
1869,37.092144868848
1868,31.3632665670912
1867,24.6499735956895
1866,18.369168075972
1865,18.6196823081721
1864,21.1057228056464
1863,23.5779750238776
1862,28.3913451890261
1861,35.3277558065977
1860,42.2282477361299
1859,46.8276517234894
1858,45.7438940523781
1857,44.3905540490462
1856,43.0662532954557
1855,42.1403091553586
1854,41.309890359546
1853,40.4790089553238
1852,39.6397591701297
1851,38.7950462568754
1850,37.949767041923
1849,38.4046366293084
1848,41.7607044367276
1847,45.2138490222677
1846,48.0076235356999
1845,46.7392229058869
1844,44.7705817411507
1843,42.8412954341737
1842,41.2257069093179
1841,39.7628191602154
1840,38.3009465919693
1839,36.735697137304
1838,34.9931034892283
1837,33.2757026855238
1836,31.7489253691585
1835,31.3122033873754
1834,31.0556412340198
1833,30.5754208590972
1832,23.6874742054364
1831,13.7023303401686
1830,3.45573918672426
1829,-3.43379686715502
1828,-4.6722634966554
1827,-5.81293074221459
1826,-5.6823123896839
1825,1.96794574703754
1824,10.8341726539047
1823,19.4649135313119
1822,21.1454877721888
1821,19.5307982399149
1820,17.8950563109659
1819,16.850383149093
1818,16.8122503417517
1817,16.79166657474
1816,17.4707420678478
1815,22.3944604820123
1814,27.8578351646685
1813,33.2408566902385
1812,33.3295850119276
1811,30.0045954991905
1810,26.7528702443507
1809,23.3764705765822
1808,19.6366156732138
1807,15.8867619835251
1806,12.8731731432431
1805,15.4455045194425
1804,19.3371007564209
1803,23.1690670746192
1802,20.2691693088937
1801,12.5101283501425
1800,4.56727149450554
1799,-1.77561426843648
1798,-4.06943250045323
1797,-6.16454994215542
1796,-7.98401543961175
1795,-6.23207287620833
1794,-3.24809365537147
1793,-0.266263366979386
1792,7.40963076569294
1791,20.5206115887243
1790,34.0390025585134
1789,44.9245015403014
1788,45.9553898692626
1787,45.9352220021686
1786,45.8952717866383
1785,46.0742219511408
1784,46.3913361149168
1783,46.6696283149001
1782,46.4874595752934
1781,45.4051289753047
1780,44.3016424807348
1779,43.2175384565064
1778,42.2860798288314
1777,41.3890960501629
1776,40.4911169256294
1775,39.2561451342323
1774,37.7243626695468
1773,36.1739007065697
1772,34.6848777227416
1771,33.3510919709177
1770,32.018046997328
1769,30.7076238876015
1768,29.6396394403178
1767,28.6697317767946
1766,27.6995734735186
1765,26.9341004168497
1764,26.5232669341297
1763,26.1187051724631
1762,25.8128558842787
1761,26.3776826737306
1760,27.18100083736
1759,27.9340307633694
1758,29.0916169757633
1757,30.6128094994257
1756,32.1313578868758
1755,33.3173383154546
1754,32.9458220982433
1753,32.4232438165192
1752,31.8910132249944
1751,31.0150096850769
1750,29.9706616703292
1749,28.9262295662952
1748,30.3415875716559
1747,37.7021991291386
1746,45.5331046214778
1745,52.5490199489585
1744,52.7321273162637
1743,51.0106510561932
1742,49.2908714101804
1741,48.9215464745382
1740,50.4186864823386
1739,51.9179316420847
1738,53.0721655345008
1737,52.0783536737833
1736,50.6796077461439
1735,49.2829213910884
1734,48.3655542615797
1733,47.8604790915617
1732,47.3535362485576
1731,46.5757606010519
1730,44.6280829074777
1729,42.5603769713752
1728,40.5343176477935
1727,40.3723861375258
1726,41.2912352767865
1725,42.2049281921475
1724,44.5711251807515
1723,51.0008641552585
1722,57.6863992287317
1721,64.0866953184362
1720,64.2676769341482
1719,62.0169755960802
1718,59.7697117052422
1717,58.0973426780921
1716,57.5872558931416
1715,57.1029734655991
1714,56.7704784655952
1713,58.886424553504
1712,61.7301991031302
1711,64.5526006390556
1710,68.7777554575584
1709,75.2666065284561
1708,81.7540599281616
1707,87.0284008779368
1706,82.8271436167999
1705,76.6154346952495
1704,70.265303650067
1703,69.1157974492356
1702,74.6107333345349
1701,80.0954171923937
1700,84.9467922081262
1699,86.7489727808792
1698,87.9101286411958
1697,89.064690676401
1696,89.2562516035792
1695,88.4433349556309
1694,87.6352312048938
1693,86.7671277501387
1692,85.5290406860976
1691,84.2317752515947
1690,82.9435906223811
1689,80.3053004971466
1688,76.3748484223328
1687,72.5482888837984
1686,69.6483273466762
1685,72.2282559658035
1684,75.6862468995046
1683,79.1193260048189
1682,79.2736604361447
1681,76.6500223183955
1680,74.031868709315
1679,71.8981727737809
1678,72.193825950256
1677,72.8450769212395
1676,73.4390294871926
1675,73.3012014489012
1674,72.4510838623969
1673,71.5950311250065
1672,71.1403902525236
1671,72.7898742140981
1670,74.6719850005552
1669,76.631475215635
1668,78.6152099784213
1667,80.531429373529
1666,82.5298016569765
1665,84.7672103307549
1664,88.2984182924138
1663,92.1752711176976
1662,96.0303328835633
1661,102.622033069792
1660,112.121313647221
1659,121.886413714611
1658,130.784532139105
1657,133.910212217815
1656,136.117043443334
1655,138.304193859815
1654,139.641116850692
1653,140.073883000365
1652,140.545135540124
1651,140.86809505666
1650,139.955754836968
1649,138.77818858069
1648,137.597574861185
1647,135.638871402281
1646,132.53428848438
1645,129.429695705351
1644,126.226157457517
1643,122.492515192516
1642,118.693262209862
1641,114.910189391093
1640,111.410828876672
1639,108.654558717947
1638,105.985019587877
1637,103.320719531934
1636,100.552896414195
1635,97.6916611201714
1634,94.8398278570466
1633,92.8621642605891
1632,93.1953586844909
1631,93.7084363505786
1630,94.2377645211155
1629,95.8893806614733
1628,98.155912235378
1627,100.400024960056
1626,101.795088067909
1625,99.4367970407953
1624,96.7046405868861
1623,93.9798615909674
1622,98.1252105226132
1621,108.341476694835
1620,118.872741475547
1619,128.054125541439
1618,128.616906971192
1617,127.74091433869
1616,126.863336409514
1615,127.028297467611
1614,128.888431641506
1613,130.754580536082
1612,132.286537477347
1611,130.86357615214
1610,128.557629595178
1609,126.255817800394
1608,124.975416654523
1607,126.432367637634
1606,128.020701589779
1605,129.50049990308
1604,130.163454232302
1603,130.403889975881
1602,130.638171721887
1601,130.651773432314
1600,129.683292024283
1599,128.594571738175
1598,127.505411854072
1597,125.535203785664
1596,122.758642100198
1595,119.987221703187
1594,117.352338717239
1593,115.912652321975
1592,114.75594991375
1591,113.599079332224
1590,115.022380705399
1589,122.224704925146
1588,129.586009795267
1587,136.340892296143
1586,134.882067431024
1585,129.889345942477
1584,124.914507379842
1583,120.872368500493
1582,120.425780003924
1581,120.338900769005
1580,120.247691456865
1579,119.547961031474
1578,118.222312018796
1577,116.896938801153
1576,116.852404431764
1575,130.633142909236
1574,148.154402911469
1573,166.230743276641
1572,178.892010314231
1571,180.071127098231
1570,180.937492470316
1569,181.765030987204
1568,181.048894700714
1567,179.53022127866
1566,178.011806737708
1565,176.221230304044
1564,173.09464454272
1563,169.797349105112
1562,166.509835906
1561,164.675316487812
1560,164.78911950372
1559,164.909959208571
1558,164.953246831295
1557,163.735162083161
1556,162.068793185155
1555,160.403265029463
1554,160.828938827407
1553,168.281088896284
1552,176.253283053419
1551,184.178901358802
1550,189.463466992331
1549,192.350374752594
1548,195.22113589391
1547,199.066640469973
1546,212.16463283635
1545,227.746437275051
1544,243.842301127708
1543,258.289124492989
1542,267.774481763328
1541,276.898100597405
1540,285.9916868884
1539,289.19599805537
1538,287.485225153791
1537,285.774917291023
1536,284.014034557619
1535,281.789396641856
1534,279.456519707244
1533,277.126312033264
1532,270.034652565382
1531,251.770301639679
1530,233.623136342454
1529,215.535987346332
1528,205.728160730577
1527,203.045266734064
1526,200.365767512115
1525,197.716574836345
1524,195.311297676678
1523,192.965663048215
1522,190.623112619595
1521,188.275849856241
1520,185.948274812208
1519,183.622593735351
1518,181.266352366952
1517,179.785701685062
1516,179.026199185983
1515,178.265135699673
1514,177.654111196456
1513,178.459832607164
1512,179.529853175277
1511,180.591587359576
1510,180.757544013304
1509,177.968577789531
1508,174.978702813905
1507,171.99518609214
1506,171.840638010484
1505,174.08535980534
1504,176.3224140992
1503,178.133259174898
1502,172.074214066049
1501,163.404690714231
1500,154.745735824121
1499,148.063285744847
1498,148.111952807697
1497,148.817871419986
1496,149.523223333432
1495,148.670882882898
1494,145.797696468028
1493,142.973464486048
1492,140.381225724667
1491,144.742965267894
1490,152.382408654274
1489,159.998122568151
1488,166.314084527878
1487,166.719404973002
1486,166.267041963437
1485,165.814348463609
1484,164.935929457764
1483,163.212337112783
1482,161.451411570448
1481,159.704800714883
1480,160.036424434141
1479,161.733443244511
1478,163.422727692497
1477,165.084653766507
1476,165.456125395884
1475,165.426936319205
1474,165.395156491098
1473,165.188223190533
1472,164.195598654665
1471,163.122775885686
1470,162.049438162498
1469,161.739084523239
1468,162.541567999742
1467,163.287209704997
1466,164.113212945243
1465,168.969774953824
1464,175.985757908932
1463,182.721131835859
1462,189.015887757086
1461,192.128236831608
1460,194.485111145255
1459,196.727195439189
1458,198.178849211522
1457,197.370582577955
1456,196.390486009108
1455,195.40980389603
1454,194.002535574531
1453,192.08520924236
1452,190.16786076967
1451,188.251019486157
1450,186.906394711023
1449,185.821098500479
1448,184.734569012002
1447,183.190375526454
1446,178.57005747537
1445,173.349202494527
1444,168.007627668346
1443,163.48082489055
1442,161.007246276858
1441,158.62072703174
1440,156.268840406554
1439,154.710601574484
1438,154.21490279045
1437,153.698079371586
1436,153.182337824505
1435,152.824170771203
1434,152.503927364223
1433,152.181221121665
1432,151.669672260546
1431,149.165049522626
1430,146.11487353835
1429,143.125635563409
1428,141.904744992113
1427,147.734408404079
1426,154.050003252432
1425,160.351847907133
1424,164.569704412846
1423,164.754354969874
1422,164.869436648125
1421,164.984298137067
1420,168.442541713954
1419,174.822887331139
1418,180.946939787158
1417,186.730864609435
1416,186.944433177826
1415,185.031158875166
1414,183.101324762371
1413,181.293583478824
1412,180.15170094958
1411,179.117068051524
1410,178.08113029094
1409,178.00224496746
1408,180.986121453116
1407,184.31460312618
1406,187.491311402804
1405,189.612909005189
1404,190.183937228157
1403,190.733603080747
1402,191.278889022959
1401,191.265826587739
1400,190.867426811143
1399,190.435843110022
1398,189.930347744222
1397,188.303808236855
1396,186.26727254142
1395,184.2320890785
1394,182.641204198533
1393,183.973380427194
1392,185.874879672872
1391,187.7701737396
1390,189.334236135145
1389,189.778166598079
1388,190.11526815122
1387,190.449539228521
1386,191.2562308257
1385,192.97039573262
1384,194.712403669416
1383,196.455494528363
1382,196.132983300399
1381,193.641642817817
1380,191.187060852701
1379,188.782150733601
1378,187.110345083851
1377,185.852676713163
1376,184.594462039076
1375,183.319107669048
1374,181.810846765336
1373,180.232966136252
1372,178.655146220834
1371,177.609688028835
1370,179.884411397328
1369,182.674112099979
1368,185.455581972198
1367,187.204824996541
1366,185.562588328811
1365,183.683043470984
1364,181.804275850975
1363,180.666470578913
1362,180.849438093089
1361,181.107918115961
1360,181.363157459012
1359,180.474286802092
1358,178.285387763947
1357,176.09513992667
1356,173.939771852018
1355,175.059256193097
1354,178.184563361189
1353,181.152448618487
1352,184.398063894848
1351,190.341676557446
1350,197.382787698981
1349,204.413936510358
1348,210.820697825026
1347,213.824375914644
1346,215.903237329199
1345,217.977525359609
1344,219.519446365703
1343,218.238899467476
1342,216.578545765651
1341,214.92418157018
1340,214.438787275556
1339,217.723548440322
1338,221.145863984414
1337,224.717089661133
1336,226.408747520301
1335,223.976120621738
1334,221.421405736003
1333,218.903877627028
1332,215.433628925304
1331,210.658485307989
1330,205.982095446427
1329,201.206730829262
1328,198.36805582226
1327,197.281345470681
1326,196.207334147672
1325,195.140699864727
1324,194.698056225427
1323,194.620199953726
1322,194.493121646541
1321,194.38291275332
1320,193.795091291224
1319,192.987874958349
1318,192.201250542066
1317,191.36277329668
1316,189.949436392231
1315,188.38229290547
1314,186.815155560167
1313,185.258558065934
1312,183.763157631245
1311,182.280464086371
1310,180.797584415996
1309,179.869124434299
1308,182.057144911366
1307,184.684584905096
1306,187.17408021087
1305,188.596916341372
1304,185.815839444199
1303,182.68856251874
1302,179.567631763796
1301,177.059623450359
1300,176.358560418817
1299,175.742824290256
1298,175.155311439417
1297,175.052111052208
1296,175.829962942451
1295,176.621159813429
1294,177.481337053934
1293,183.829202934819
1292,198.080050692079
1291,212.358665763799
1290,227.131920834554
1289,234.600767727301
1288,233.446172185492
1287,232.291032135464
1286,231.148240535058
1285,229.36703248752
1284,227.036920465028
1283,224.708403087218
1282,222.344961694613
1281,218.835017186607
1280,214.60465681655
1279,210.377696909782
1278,205.896630780694
1277,194.189450010805
1276,178.865246007625
1275,163.550517460274
1274,148.435559467622
1273,140.96387980319
1272,137.489548568759
1271,134.086247001118
1270,130.753814351856
1269,128.889596355155
1268,127.642688949822
1267,126.395287090845
1266,125.497534476404
1265,130.065984619324
1264,136.464781071211
1263,143.119114582426
1262,149.19344328399
1261,148.755085737949
1260,146.621566929921
1259,144.489055154128
1258,142.404059525332
1257,140.849906523434
1256,139.442363533801
1255,138.030466354592
1254,136.607615230381
1253,135.093598216982
1252,133.558794400363
1251,132.023883980957
1250,130.347071046676
1249,127.724778628081
1248,124.928245694399
1247,122.131860917272
1246,119.455524382483
1245,117.621010425685
1244,115.944744272986
1243,114.268660089536
1242,112.539840111297
1241,110.484524038553
1240,108.378174142419
1239,106.272024927282
1238,104.511386727432
1237,104.841708569487
1236,105.592071130491
1235,106.340843825986
1234,107.074116646796
1233,108.101948919069
1232,109.166442606594
1231,110.227121827148
1230,111.400117915166
1229,113.188119386212
1228,115.060961353419
1227,116.927056141545
1226,118.730486063066
1225,119.694753795278
1224,120.460777601988
1223,121.229153029143
1222,121.981698377839
1221,122.644888273621
1220,123.293189491046
1219,123.938413090956
1218,124.678778206949
1217,125.939507971198
1216,127.273387177124
1215,128.603150128438
1214,129.541213804679
1213,128.183855540784
1212,126.453131873086
1211,124.722643208577
1210,123.142579427535
1209,122.419171301292
1208,121.806099855534
1207,121.192798947899
1206,120.761898521851
1205,121.363524970932
1204,122.128208057616
1203,122.894793184924
1202,123.282550377771
1201,121.243013778178
1200,118.776942639448
1199,116.312527636804
1198,113.997039422358
1197,112.754285370723
1196,111.724535523252
1195,110.69380248865
1194,109.652753610014
1193,108.532030091836
1192,107.393004766194
1191,106.253504604009
1190,105.450475198693
1189,108.003915329218
1188,111.414460684919
1187,114.820215400645
1186,117.817970368467
1185,115.965288355879
1184,112.702599374905
1183,109.446520160852
1182,106.260248906189
1181,104.025170045993
1180,102.106284640344
1179,100.188079970886
1178,98.2985136224431
1177,96.9447395805131
1176,95.7795319515887
1175,94.6131381275346
1174,93.4534733540053
1173,91.9289645736839
1172,90.2037217619398
1171,88.4787598814053
1170,86.7517710787664
1169,84.8223245787413
1168,82.763771729406
1167,80.7067107115621
1166,78.6566260731346
1165,77.7743384482553
1164,77.7724149231479
1163,77.7686669896883
1162,77.7630951074568
1161,77.1149203680137
1160,75.8771859026184
1159,74.6382784141084
1158,73.4110089936001
1157,72.2325263460555
1156,71.1228133065666
1155,70.0125527535665
1154,68.9013096076018
1153,67.9697258561183
1152,67.3379978480319
1151,66.7104821242579
1150,66.0496381340575
1149,65.3576919421827
1148,64.6209765165388
1147,63.8788856820124
1146,63.1350286998913
1145,62.6055706324831
1144,62.7183067756713
1143,62.8685751721053
1142,62.9547394705974
1141,62.8071534946645
1140,61.6642631098643
1139,60.3914108288766
1138,59.1180352231131
1137,58.3515377541805
1136,60.4611343424746
1135,62.874063745648
1134,65.2779871652902
1133,67.5446635906715
1132,67.2110071236155
1131,66.2228748849731
1130,65.2343138855777
1129,64.3181507031377
1128,64.2953232783709
1127,64.5683019095962
1126,64.9048775384043
1125,65.2143937876544
1124,64.73726586113
1123,63.8566753609193
1122,62.9757119142803
1121,62.1185178627293
1120,60.7412180348534
1119,58.9720816978918
1118,57.2032539851718
1117,55.438581778331
1116,53.3232230990976
1115,50.7692233930134
1114,48.2169534804122
1113,45.6676452645193
1112,43.9382398279013
1111,43.5662013546984
1110,43.2574662625013
1109,42.949515395169
1108,43.3136978657627
1107,45.6852547936404
1106,48.3089859004417
1105,50.9398752193883
1104,52.5762571156457
1103,50.2495150969237
1102,47.5095561716328
1101,44.7361349199137
1100,42.2468794105568
1099,41.607664558015
1098,41.3195535224067
1097,41.0751320631464
1096,40.8884232279874
1095,41.419556117298
1094,42.1951927789647
1093,43.050188002827
1092,43.8786809388779
1091,43.8924798640154
1090,43.5225337080422
1089,43.195855239976
1088,42.8675550884083
1087,42.6225139103039
1086,42.4899092714422
1085,42.4088511632277
1084,42.2723956192672
1083,42.1009546602296
1082,41.9222125730989
1081,41.74172880003
1080,41.5103221644555
1079,40.7901283291218
1078,38.6740244016152
1077,36.481675357852
1076,34.2898242621139
1075,32.8620755938066
1074,35.3316535417816
1073,38.1763299644583
1072,41.0198445267188
1071,43.9315187606459
1070,45.9076533670325
1069,47.6804814391439
1068,49.568123456731
1067,51.2061182506085
1066,48.306237633168
1065,43.180836164448
1064,38.1703850397071
1063,33.1612818359804
1062,30.1995333321275
1061,29.1205772217547
1060,28.0402997280836
1059,26.9802869241642
1058,25.4053551300755
1057,22.9865329818725
1056,20.5342447041347
1055,18.109147760185
1054,16.6798858363329
1053,18.5641923773938
1052,20.5858440107789
1051,22.6029115839885
1050,24.5136850559203
1049,25.6793157596345
1048,26.8054297395724
1047,27.8368150289628
1046,28.8078518489568
1045,28.763257988559
1044,28.2611482075928
1043,27.7592795662864
1042,27.2505022512099
1041,23.5140930198413
1040,17.1695129590185
1039,10.9859962462477
1038,4.80961000254851
1037,1.57028296290728
1036,3.16167742682776
1035,4.90824886402834
1034,6.52819727779027
1033,7.6547858188806
1032,7.24751649245493
1031,6.71288745825464
1030,6.2199077575253
1029,5.62092575514651
1028,4.53580318087956
1027,3.360422346126
1026,2.18470323671053
1025,1.03862891046715
1024,0.0787270013857934
1023,-0.79710538317134
1022,-1.67317415254254
1021,-2.54947808139351
1020,-0.957509133237098
1019,2.96137756108226
1018,6.86776093358213
1017,10.7616553989149
1016,12.9024583436941
1015,10.9829332233741
1014,8.93504470648119
1013,6.88814818259145
1012,4.88238447155113
1011,3.06208267632769
1010,1.26744195377394
1009,-0.526801265427307
1008,-2.19975498193371
1007,-2.2440805753351
1006,-1.73833928540858
1005,-1.23479305214118
1004,-0.734685300362469
1003,-0.458494990152752
1002,-0.358954631241886
1001,-0.197498135072819
1000,-0.102456080412174
999,0.733954181194503
998,2.84798249486403
997,4.98141423520099
996,7.10696834762608
995,8.4372291463597
994,6.60186305550423
993,4.39967487382981
992,2.19922818533667
991,0.210008608124033
990,1.40357195697602
989,3.64328828605734
988,5.88922744143687
987,8.14071400492963
986,8.26951984594374
985,6.68613730619776
984,5.10272490195044
983,3.51928398639574
982,1.7999826081602
981,-0.196220725513759
980,-2.20129586509465
979,-4.20542963370753
978,-6.0138807724458
977,-6.86149316297115
976,-7.56721420295619
975,-8.27421879910532
974,-8.90204548334407
973,-6.44500069196862
972,-2.75303707972778
971,0.934192882166525
970,4.6166898189751
969,5.84568461760547
968,4.46398365117611
967,3.06683410690972
966,1.68412714174342
965,0.269213818187471
964,-1.24502411327058
963,-2.76593317126407
962,-4.28733639714371
961,-5.81732141590384
960,-7.42609837482305
959,-9.04352820206984
958,-10.6609310235561
957,-12.2784317351457
956,-13.904054388061
955,-15.5411623597344
954,-17.1718163863424
953,-18.8023558900257
952,-18.7148704507467
951,-15.3666088773039
950,-12.1111109486223
949,-8.68163727594627
948,-5.57308348747469
947,-4.32125428281726
946,-3.3476643245611
945,-2.47351822124344
944,-1.54970207323057
943,-1.82289385906203
942,-2.7017584614279
941,-3.54796783114224
940,-4.39605663257469
939,-5.40160763146504
938,-6.63038706622321
937,-7.88295338400946
936,-9.11451118045755
935,-10.4509565492742
934,-12.2436602514322
933,-14.0830009445423
932,-15.9219719483729
931,-17.7507749646518
930,-19.3262072969251
929,-20.8007564891249
928,-22.2885177755107
927,-23.7638877024351
926,-24.5385183179036
925,-24.4837956312383
924,-24.358465100766
923,-24.2316418978267
922,-24.3788410556791
921,-25.3743745040697
920,-26.467465928672
919,-27.5869763187174
918,-28.5234612420217
917,-26.8149404605497
916,-24.2464621426892
915,-21.6766667273471
914,-18.9469300383061
913,-17.1765461123587
912,-16.7834239289613
911,-16.3183868568644
910,-15.8583432127604
909,-15.9259286897823
908,-18.0114810440076
907,-20.339533918237
906,-22.650387510958
905,-24.9025571543746
904,-25.3016192936257
903,-24.863999438145
902,-24.5096054093828
901,-24.1585520569488
900,-22.9878910507595
899,-20.5901916564604
898,-18.318010067847
897,-16.046066082754
896,-13.3374536659996
895,-8.99598983070952
894,-4.60582253117821
893,0.00296829450335989
892,4.52746980707788
891,5.19057752504963
890,3.88918236875443
889,2.58761082649445
888,1.3081863593608
887,0.0426051950825715
886,-1.21634837520786
885,-2.47513449993782
884,-3.71085097337103
883,-4.94986774944714
882,-6.23491393348524
881,-7.52623903993917
880,-8.79639102067468
879,-10.0686636343901
878,-11.9962376643559
877,-14.4569672956744
876,-16.915661660366
875,-19.3912915350971
874,-20.766923059792
873,-18.5160633973797
872,-15.9888987514313
871,-13.4662969355656
870,-10.9194179361005
869,-10.8332336903064
868,-11.7873084152107
867,-12.742268397034
866,-13.6981119854395
865,-13.7419162705576
864,-12.3043909784
863,-10.963282401458
862,-9.63093859500758
861,-8.56571578132036
860,-9.43954454656859
859,-10.6850920470752
858,-11.9324661660226
857,-13.2028751898037
856,-13.5556913601699
855,-13.1863892980131
854,-12.817954574499
853,-12.3671638553454
852,-11.5243098172535
851,-9.52603883446261
850,-7.44251830273764
849,-5.36334190519045
848,-3.30268394030619
847,-1.65304259269655
846,-0.0733603242391531
845,1.49943378069085
844,2.94278425086623
843,3.86819254652164
842,3.82155235116145
841,3.74732272367129
840,3.66737893915229
839,3.44412740381852
838,1.68941972233066
837,-0.486017461482255
836,-2.65461537367635
835,-4.82246757452275
834,-5.91658848336988
833,-5.80369644216949
832,-5.69127755823344
831,-5.5793292750253
830,-5.32412177374142
829,-4.10703694211306
828,-2.7532168825124
827,-1.51728211311755
826,-0.295512880621528
825,-0.461452716060869
824,-1.54893559485475
823,-2.63707818476905
822,-3.72587884461577
821,-5.04051469708274
820,-7.16127032731931
819,-9.35288145921585
818,-11.5433860757783
817,-13.688186316753
816,-13.6513919814285
815,-12.4964701327697
814,-11.4521624761911
813,-10.4091473520597
812,-9.24567188110096
811,-7.80409103749748
810,-6.3559510689969
809,-4.91244960735399
808,-3.5181597619945
807,-2.86386103989847
806,-2.47117534287138
805,-2.07928438710284
804,-1.68818552773256
803,-0.596501598447273
802,1.86403040528578
801,4.35720202509662
800,6.84866015708945
799,9.13213582911312
798,8.80951297556827
797,7.70078993900534
796,6.58982643168234
795,5.47663004044972
794,4.36224089107573
793,3.24829282315122
792,2.13352217666733
791,1.0179037494936
790,0.226312376851678
789,2.7587986907379
788,6.14812912868162
787,9.52488918778114
786,12.8890978247645
785,15.5956916966486
784,17.3383314124612
783,19.060572013022
782,20.7701136777003
781,22.1858093027417
780,21.1492640889699
779,19.5467022277221
778,17.943966786502
777,16.3410596419726
776,16.2414573147582
775,18.1156556075116
774,19.9923235089103
773,21.8624392570546
772,23.4489029674917
771,22.9023777526933
770,21.9098877518854
769,20.9167346645695
768,19.9229201786236
767,18.3789489118951
766,16.1735833959845
765,13.968182837108
764,11.7637814207336
763,10.0415912141418
762,11.7149742849416
761,14.0381278092181
760,16.3580659238805
759,18.5160265142903
758,18.910998337358
757,16.8828555611749
756,14.834990722073
755,12.7878042229695
754,11.3438461595481
753,15.3531328678041
752,20.6521457316208
751,25.9416461683785
750,31.2216400429771
749,34.3192491980746
748,34.3618057770338
747,34.3080775829277
746,34.2562880066022
745,34.5367961666281
744,37.9433650870438
743,42.2760342144711
742,46.602446105058
741,50.9226051560582
740,53.058825649152
739,51.3280384438172
738,49.5235773307802
737,47.7055025060228
736,45.910695529421
735,44.5625505259728
734,43.3783824960734
733,42.1944547785239
732,41.0107691671417
731,39.6570397663202
730,37.9003519978673
729,36.128997411323
728,34.3734904158571
727,32.6336507886745
726,31.4225547497409
725,30.4706266938057
724,29.5190376341326
723,28.5234504275357
722,27.4130328148866
721,25.9064901931321
720,24.3566440570066
719,22.8063841584918
718,21.289755948044
717,23.098940146516
716,26.8382497474621
715,30.5617736340238
714,34.4884877901837
713,37.9709381356237
712,39.195149207262
711,40.094605655654
710,40.8798229683489
709,41.6622614598664
708,41.3702870646507
707,39.6636001875057
706,37.955320594805
705,36.2287406958309
704,34.5274895387791
703,33.1112342684933
702,31.7664983264037
701,30.4217825722709
700,29.0456133596644
699,28.5597026723334
698,30.0117053670376
697,31.5195796322562
696,33.0190334774751
695,34.3221285399074
694,33.9788559211405
693,32.9712996304362
692,31.9622944678367
691,30.9079262450105
690,30.339785883572
689,31.7144822889857
688,33.2742940745403
687,34.8294707657638
686,36.2442268764781
685,37.1624341460638
684,37.7703056756174
683,38.3742766286015
682,38.8721881220947
681,39.3358298913908
680,39.6592737245377
679,39.9291364017126
678,40.1057381752674
677,40.2797008347507
676,39.9426482014131
675,38.5445955315219
674,37.0961580555921
673,35.6479719317837
672,34.1515465430753
671,30.9579478781229
670,27.0542992892368
669,23.0942104150816
668,19.1382874153992
667,16.2207944216697
666,17.0978513458623
665,18.44076400075
664,19.7846064102856
663,21.0002867502985
662,22.4996095470219
661,24.4246098529062
660,26.1990429858672
659,27.9728440921807
658,29.8314060694162
657,30.9355519141374
656,31.8824787231558
655,32.9519061424935
654,34.0240478318649
653,34.2134946581071
652,32.5833003023518
651,30.9106795634558
650,29.2160094453332
649,27.5248233796079
648,26.1492153071308
647,24.9213740338574
646,23.6920253223762
645,22.5006160883647
644,21.3604440529798
643,20.8575528184688
642,20.5348446840363
641,20.1407158292322
640,19.7457164327677
639,19.1354801927049
638,17.9683815567992
637,16.7906502859641
636,15.6542712020881
635,14.5383564467173
634,16.2707938631617
633,19.624289164023
632,22.7706328288583
631,25.9120150563315
630,28.5574073983391
629,28.3290456341549
628,27.7423301398339
627,27.0923901932803
626,26.4413512133943
625,25.7044415467138
624,24.6829333989622
623,23.6573127274423
622,22.6788267847413
621,21.650816629887
620,20.6153594859088
619,19.5769628207122
618,18.5386725006872
617,17.5483477518368
616,16.6597958149348
615,16.5552717696543
614,16.5482869774553
613,16.5361715517734
612,16.604726347168
611,16.6269499172849
610,16.7181115905573
609,16.8061199445089
608,16.8903160611419
607,17.0837115030915
606,17.8672973377114
605,18.9915657648266
604,20.1152915847717
603,21.2384802084072
602,22.2131247042843
601,22.1797674399486
600,22.0534058663592
599,21.8456951818468
598,21.6363643495878
597,21.5242853459072
596,21.6152694277699
595,21.7089045203147
594,21.8002908429977
593,21.9920995441616
592,22.8101756281872
591,24.0851105204247
590,25.3581420233667
589,26.6292741414003
588,27.8078181261747
587,28.1090878635336
586,28.2092253151707
585,28.3091151857917
584,28.4087610322117
583,28.2380786124536
582,27.2640538751596
581,26.2307236799156
580,25.2482963304629
579,24.2162038027602
578,23.4294134951172
577,22.8878632705708
576,22.3476519582609
575,21.8087851867244
574,21.3337932567618
573,21.8867785880476
572,22.8314529401258
571,23.7748354499079
570,24.7169301127712
569,25.3300801781541
568,24.2645274739765
567,22.9870806816397
566,21.7097185589143
565,20.4324423891681
564,19.3812484107295
563,18.7521609407888
562,18.1360064630782
561,17.5212310520106
560,16.9313140731919
559,18.6455425367613
558,21.964267672794
557,25.2787390801592
556,28.3765307148127
555,31.4582266708607
554,31.8026297427259
553,31.2734857306541
552,30.7450704856197
551,30.2173877784199
550,29.5880249134595
549,28.5194445060043
548,27.4050310636336
547,26.289214335409
546,25.1719975933884
545,25.3398142641987
544,27.5929917531717
543,29.7091250407307
542,32.0008639355049
541,34.2842382119448
540,34.8679617765722
539,34.272133045986
538,33.6774658094926
537,33.0839647399335
536,32.4466466236953
535,32.2477479813058
534,32.161252480234
533,32.071867455086
532,31.9795968755072
531,31.6162969145753
530,30.1244633045343
529,28.4618590158777
528,26.8303811102012
527,25.1991542861172
526,25.8352054712333
525,30.9544287885375
524,35.9308541452646
523,41.1892254367686
522,46.4429336353785
521,48.4334801196988
520,47.5184351982919
519,46.5415271943178
518,45.6198980162996
517,44.7938287485379
516,46.4467857199185
515,49.0883368926033
514,51.5321754432591
513,54.1594027085091
512,56.2175941680276
511,54.2225383036953
510,51.4896417846267
509,48.7589310934192
508,46.0304045505709
507,43.7342650626404
506,42.7251258523277
505,41.8610379896227
504,40.9961050698152
503,40.0692773148962
502,39.5124241515061
501,39.4583673677774
500,39.3187303677912
499,39.266942674365
498,39.2120574503129
497,39.227064473015
496,39.4673466431987
495,39.6995970659058
494,39.8220914587952
493,39.9748738820991
492,38.8954539699357
491,37.2747785610478
490,35.6892163512657
489,34.1038563966227
488,32.3392200335664
487,29.3446110184507
486,26.0875326001515
485,22.8612360908797
484,19.6114445810639
483,16.8598148808312
482,15.8917589858295
481,15.1424257257615
480,14.3934717247874
479,13.5793910119131
478,13.6458253901198
477,15.3243203070858
476,16.9033915354815
475,18.487442104016
474,20.2350950575384
473,20.3427268724525
472,18.6156472325516
471,16.9201136687988
470,15.2251278560332
469,13.5158893288051
468,13.0075926977453
467,13.344640449605
466,13.6832655227007
465,13.9168846653268
464,14.4634815258597
463,17.8158396475133
462,21.8717042565141
461,25.9281538536483
460,30.2398383855802
459,34.0231496878
458,34.0174261930689
457,33.3610249630557
456,32.7799537194532
455,32.2006376862522
454,31.4127948445751
453,30.0745760833882
452,28.7240165684977
451,27.3741210938543
450,25.9795834265351
449,25.7700428426854
448,28.8486258091478
447,32.0827815332444
446,35.1032466712631
445,38.1252879043179
444,38.710926672853
443,35.185740571566
442,31.599009344269
441,28.0502557481067
440,24.5026443861478
439,22.3379770219689
438,21.5594352341834
437,20.7152731150319
436,19.8723183378607
435,19.0585723618329
434,21.5052732501876
433,25.9267014040383
432,30.0918137647773
431,34.260239276562
430,38.2768038671381
429,38.4828463525365
428,37.0234931626896
427,35.5218042434286
426,34.0206360122287
425,32.5605034090513
424,31.6419734485978
423,30.8593715547065
422,30.0101280393403
421,29.1621177275304
420,28.4867423128195
419,29.0835704769933
418,29.8942312921596
417,30.5806074975244
416,31.2697183486885
415,32.4512108697475
414,35.7107693036244
413,39.4377265021686
412,43.1644286240097
411,46.6546409271173
410,49.1447425581495
409,48.8157072065445
408,48.3187927905355
407,47.8234578936065
406,47.4130736432855
405,47.1417094566311
404,47.0513968093749
403,46.9695697389323
402,46.8899624108859
401,46.8125836128121
400,46.2648170392921
399,44.9716142799833
398,43.6665720726856
397,42.3118999247961
396,40.9580552316241
395,39.9868220262747
394,39.4484631063737
393,38.9127662411362
392,38.3797407178728
391,37.929963920505
390,37.1267024813783
389,35.9788561998227
388,34.8313525293064
387,33.6841916479428
386,32.5725314383989
385,35.2513083477545
384,40.4235821108652
383,45.5932579579126
382,50.7603473334647
381,56.0925471167734
380,57.253847630383
379,56.2259330185877
378,55.1968320150941
377,54.166545338874
376,53.1263082732149
375,51.8850706237554
374,50.5611735114118
373,49.2379397748974
372,47.9153693448532
371,46.5828093984152
370,45.0448045474861
369,43.4706028783096
368,41.895933769131
367,40.2787825402934
366,38.8611252401316
365,39.5523422385865
364,40.809143402227
363,42.0674491285651
362,43.3272692425387
361,44.8124890934595
360,48.4069655602105
359,52.51907247296
358,56.6293092177249
357,60.737685250341
356,64.4392136833738
355,64.6667256443116
354,64.1081889417561
353,63.5516699664236
352,62.9971744179273
351,62.5441666687799
350,62.8697331823113
349,63.3605691757589
348,63.8525869981569
347,64.3457927021308
346,64.939212211476
345,66.4087289231532
344,68.0218536344581
343,69.4749969523664
342,70.9306613789837
341,72.3023609624231
340,73.2515011030176
339,74.1504447244011
338,75.0571587232138
337,75.9716887377854
336,76.8665458493533
335,77.6400644388227
334,78.4048022993494
333,79.1770830038434
332,79.9569501985354
331,80.4668579452647
330,79.7405692508372
329,78.8688999749865
328,77.9235479658895
327,76.979257721417
326,75.8596983736041
325,73.3092018962241
324,70.5354323023113
323,67.7633839602953
322,64.9930542712275
321,62.431295020842
320,61.0001004795592
319,59.7402476722717
318,58.4813533079293
317,57.223417045582
316,55.988152678225
315,54.8681156559847
314,53.765281718241
313,52.6629865465243
312,51.5612293649768
311,50.6706351319765
310,50.861200963204
309,51.2061245374394
308,51.5529220118345
307,51.9016005988849
306,52.1772801088289
305,51.975939999643
304,51.7241225815117
303,51.5766528916671
302,51.4307322918868
301,51.3279116014652
300,51.5047589107564
299,51.7341617011804
298,51.9645883714702
297,52.1960426874557
296,53.186598968863
295,59.2071356157037
294,66.1513566869616
293,73.0976148586287
292,79.667914253459
291,85.9758965823623
290,90.2177967089396
289,93.8660183063757
288,97.5158066847182
287,101.167177553781
286,104.461894285532
285,104.42299522525
284,103.572400551651
283,102.723781616665
282,101.797184882888
281,100.772289526397
280,98.4222653013212
279,95.6205255286668
278,92.8203674977867
277,90.0217877568865
276,87.3160248430338
275,85.9210968729134
274,84.8799695712878
273,83.8399783530971
272,82.8763548601928
271,81.8976681660231
270,80.5135137061441
269,78.9540109085878
268,77.3948533315582
267,75.7836982629919
266,74.1822993910541
265,73.1613681834593
264,72.4457033273657
263,71.7315183387882
262,71.0188147459481
261,70.3443144239309
260,71.7470139777024
259,74.5182495135609
258,77.5208462772994
257,80.526943378169
256,83.5327437414521
255,84.8156640447917
254,84.5945097303171
253,84.3762535396801
252,84.2706947389013
251,84.1684322625563
250,84.1219182337392
249,84.0231564543866
248,83.9259808639997
247,83.9453233138074
246,83.9665459331774
245,85.9513793973151
244,91.0652541285505
243,95.9096339352604
242,100.759567038429
241,105.929739819062
240,108.177769045746
239,104.043929521166
238,99.7414736451924
237,95.4403087432163
236,91.0884200692729
235,87.9790684402903
234,88.5855429830075
233,89.2936534885942
232,90.0025406637623
231,90.8609747961877
230,91.6951135221592
229,92.2827277003021
228,92.8632846011882
227,93.5928157758565
226,94.3276193265635
225,94.8869999580036
224,94.266195764678
223,93.4663113061268
222,92.7582315396402
221,92.052882656539
220,91.259468361402
219,90.4558534964811
218,89.7435470162441
217,89.0375075258305
216,88.2477274758111
215,87.5075047155267
214,88.0287563353971
213,89.0703852741297
212,89.9555665305401
211,90.8413457868658
210,91.87148729953
209,91.733317529332
208,90.7798569912489
207,89.8307963185679
206,88.9708886447187
205,88.0308949223613
204,85.7652771614483
203,81.9371142995425
202,78.1056726672124
201,74.3047401641359
200,70.5045606590994
199,68.8826575729554
198,71.2270874626328
197,73.4417686460568
196,75.6577177940553
195,78.0865330673151
194,80.1279281628702
193,81.6493408912213
192,83.3315533734299
191,84.8364502957438
190,86.3471567327548
189,87.6464388115675
188,86.9666798443101
187,85.9400031682481
186,84.9170529225612
185,83.9812877821111
184,82.6330991612918
183,77.9483665939432
182,72.3942745943474
181,66.9410412138974
180,61.4941620679834
179,56.2217118763788
178,56.3750185116405
177,58.7999438720765
176,61.4482962244472
175,63.878443071751
174,66.2939081950648
173,64.3245763678461
172,58.8716285717985
171,53.4250069930435
170,47.8909505858042
169,42.4570244321298
168,39.3483310536503
167,39.8501320059004
166,40.2636716091052
165,40.6839859988033
164,41.2523292093899
163,42.3373340129175
162,45.166099042729
161,48.312338222466
160,51.2145776302333
159,54.1135136997263
158,56.588745756284
157,56.6926022868313
156,56.5866348904655
155,56.3657104173703
154,56.1464518839139
153,55.9547467909378
152,54.7272949440707
151,53.2402064895569
150,51.7544259516852
149,50.2699494488007
148,48.8494998526402
147,47.199236232999
146,45.4575147411656
145,43.7162367156711
144,41.9753951622315
143,40.2915988977602
142,38.0737902768857
141,35.2879801054803
140,32.5035258044733
139,29.7204206917207
138,26.9534876158771
137,24.1016360385791
136,21.0715355238213
135,18.0356612703121
134,15.0011820908584
133,11.9726337953476
132,9.19623075698618
131,7.80878653180136
130,6.60590386436942
129,5.40475541533182
128,4.28340785199802
127,3.1471117084691
126,2.91348319761134
125,2.95544806489448
124,3.00069517258511
123,3.04923325078771
122,3.10712829326904
121,3.96128499661915
120,5.42543942078085
119,7.09182540329568
118,8.58786160194638
117,10.0996182096578
116,10.5798639121499
115,9.29331113993923
114,7.98838697395419
113,6.68335152052506
112,5.3781960418777
111,3.35161269782121
110,-1.45372896489277
109,-6.56433756421763
108,-11.7442839717969
107,-16.8406953905701
106,-21.6903205265002
105,-24.3747769553544
104,-26.4938103082742
103,-28.6134084924152
102,-30.7335809714087
101,-33.9165423522563
100,-37.0983575025141
