Created as New Dataset,
Raman Shift / cm-1,INT
3200.00,-70
3199.00,-69
3198.00,-68
3197.00,-42
3196.00,1
3195.00,11
3194.00,11
3193.00,11
3192.00,28
3191.00,71
3190.00,85
3189.00,89
3188.00,125
3187.00,154
3186.00,153
3185.00,169
3184.00,201
3183.00,206
3182.00,198
3181.00,169
3180.00,122
3179.00,42
3178.00,5
3177.00,5
3176.00,5
3175.00,17
3174.00,86
3173.00,140
3172.00,142
3171.00,183
3170.00,253
3169.00,268
3168.00,261
3167.00,226
3166.00,187
3165.00,148
3164.00,168
3163.00,233
3162.00,222
3161.00,166
3160.00,10
3159.00,-117
3158.00,-122
3157.00,-106
3156.00,-73
3155.00,-61
3154.00,-63
3153.00,-90
3152.00,-116
3151.00,-118
3150.00,-117
3149.00,-116
3148.00,-26
3147.00,128
3146.00,190
3145.00,237
3144.00,402
3143.00,492
3142.00,324
3141.00,125
3140.00,-87
3139.00,-256
3138.00,-373
3137.00,-158
3136.00,114
3135.00,148
3134.00,133
3133.00,78
3132.00,56
3131.00,83
3130.00,93
3129.00,93
3128.00,93
3127.00,93
3126.00,91
3125.00,90
3124.00,89
3123.00,127
3122.00,230
3121.00,263
3120.00,236
3119.00,227
3118.00,223
3117.00,202
3116.00,180
3115.00,177
3114.00,148
3113.00,51
3112.00,-7
3111.00,-7
3110.00,-4
3109.00,0
3108.00,18
3107.00,38
3106.00,39
3105.00,37
3104.00,36
3103.00,71
3102.00,204
3101.00,289
3100.00,288
3099.00,239
3098.00,149
3097.00,131
3096.00,151
3095.00,156
3094.00,156
3093.00,155
3092.00,150
3091.00,129
3090.00,95
3089.00,31
3088.00,1
3087.00,21
3086.00,42
3085.00,62
3084.00,83
3083.00,107
3082.00,189
3081.00,276
3080.00,240
3079.00,181
3078.00,137
3077.00,105
3076.00,103
3075.00,103
3074.00,102
3073.00,102
3072.00,101
3071.00,121
3070.00,159
3069.00,209
3068.00,260
3067.00,261
3066.00,242
3065.00,236
3064.00,233
3063.00,216
3062.00,197
3061.00,179
3060.00,156
3059.00,121
3058.00,105
3057.00,138
3056.00,173
3055.00,206
3054.00,208
3053.00,173
3052.00,146
3051.00,129
3050.00,111
3049.00,93
3048.00,87
3047.00,85
3046.00,72
3045.00,56
3044.00,53
3043.00,56
3042.00,84
3041.00,109
3040.00,97
3039.00,80
3038.00,63
3037.00,58
3036.00,86
3035.00,117
3034.00,148
3033.00,168
3032.00,168
3031.00,167
3030.00,166
3029.00,192
3028.00,253
3027.00,288
3026.00,300
3025.00,289
3024.00,257
3023.00,226
3022.00,197
3021.00,205
3020.00,232
3019.00,240
3018.00,238
3017.00,226
3016.00,212
3015.00,217
3014.00,227
3013.00,207
3012.00,183
3011.00,210
3010.00,248
3009.00,277
3008.00,301
3007.00,304
3006.00,303
3005.00,301
3004.00,291
3003.00,231
3002.00,173
3001.00,165
3000.00,164
2999.00,163
2998.00,158
2997.00,134
2996.00,114
2995.00,123
2994.00,128
2993.00,105
2992.00,86
2991.00,95
2990.00,104
2989.00,104
2988.00,110
2987.00,143
2986.00,171
2985.00,173
2984.00,173
2983.00,172
2982.00,173
2981.00,184
2980.00,191
2979.00,180
2978.00,167
2977.00,155
2976.00,145
2975.00,143
2974.00,143
2973.00,142
2972.00,141
2971.00,140
2970.00,143
2969.00,163
2968.00,182
2967.00,193
2966.00,202
2965.00,202
2964.00,202
2963.00,211
2962.00,221
2961.00,230
2960.00,237
2959.00,238
2958.00,237
2957.00,235
2956.00,235
2955.00,241
2954.00,251
2953.00,268
2952.00,285
2951.00,271
2950.00,250
2949.00,244
2948.00,243
2947.00,264
2946.00,291
2945.00,299
2944.00,297
2943.00,296
2942.00,295
2941.00,270
2940.00,230
2939.00,211
2938.00,209
2937.00,213
2936.00,221
2935.00,212
2934.00,182
2933.00,164
2932.00,163
2931.00,165
2930.00,173
2929.00,190
2928.00,223
2927.00,251
2926.00,260
2925.00,273
2924.00,305
2923.00,333
2922.00,334
2921.00,332
2920.00,329
2919.00,325
2918.00,295
2917.00,261
2916.00,252
2915.00,250
2914.00,225
2913.00,191
2912.00,178
2911.00,178
2910.00,205
2909.00,253
2908.00,278
2907.00,275
2906.00,276
2905.00,282
2904.00,284
2903.00,275
2902.00,267
2901.00,265
2900.00,262
2899.00,253
2898.00,245
2897.00,249
2896.00,255
2895.00,255
2894.00,254
2893.00,253
2892.00,253
2891.00,238
2890.00,214
2889.00,202
2888.00,200
2887.00,207
2886.00,229
2885.00,252
2884.00,280
2883.00,293
2882.00,259
2881.00,221
2880.00,183
2879.00,147
2878.00,122
2877.00,102
2876.00,121
2875.00,155
2874.00,171
2873.00,177
2872.00,176
2871.00,169
2870.00,166
2869.00,171
2868.00,175
2867.00,174
2866.00,179
2865.00,209
2864.00,236
2863.00,217
2862.00,192
2861.00,208
2860.00,239
2859.00,237
2858.00,216
2857.00,217
2856.00,242
2855.00,251
2854.00,232
2853.00,222
2852.00,250
2851.00,275
2850.00,266
2849.00,254
2848.00,259
2847.00,270
2846.00,269
2845.00,261
2844.00,253
2843.00,245
2842.00,228
2841.00,197
2840.00,172
2839.00,169
2838.00,167
2837.00,160
2836.00,152
2835.00,145
2834.00,139
2833.00,145
2832.00,162
2831.00,174
2830.00,179
2829.00,183
2828.00,181
2827.00,179
2826.00,173
2825.00,167
2824.00,173
2823.00,183
2822.00,189
2821.00,193
2820.00,192
2819.00,185
2818.00,184
2817.00,199
2816.00,212
2815.00,213
2814.00,211
2813.00,206
2812.00,200
2811.00,193
2810.00,186
2809.00,186
2808.00,195
2807.00,201
2806.00,195
2805.00,192
2804.00,216
2803.00,245
2802.00,252
2801.00,251
2800.00,252
2799.00,256
2798.00,258
2797.00,256
2796.00,256
2795.00,264
2794.00,271
2793.00,269
2792.00,262
2791.00,256
2790.00,249
2789.00,241
2788.00,230
2787.00,220
2786.00,217
2785.00,216
2784.00,215
2783.00,214
2782.00,210
2781.00,204
2780.00,200
2779.00,199
2778.00,200
2777.00,207
2776.00,213
2775.00,203
2774.00,187
2773.00,182
2772.00,185
2771.00,189
2770.00,197
2769.00,203
2768.00,198
2767.00,192
2766.00,190
2765.00,189
2764.00,195
2763.00,207
2762.00,212
2761.00,203
2760.00,193
2759.00,183
2758.00,173
2757.00,175
2756.00,183
2755.00,186
2754.00,184
2753.00,183
2752.00,182
2751.00,180
2750.00,179
2749.00,178
2748.00,184
2747.00,195
2746.00,204
2745.00,211
2744.00,217
2743.00,216
2742.00,215
2741.00,226
2740.00,241
2739.00,256
2738.00,271
2737.00,281
2736.00,277
2735.00,266
2734.00,189
2733.00,92
2732.00,77
2731.00,135
2730.00,174
2729.00,160
2728.00,144
2727.00,141
2726.00,139
2725.00,151
2724.00,172
2723.00,188
2722.00,191
2721.00,194
2720.00,203
2719.00,213
2718.00,216
2717.00,215
2716.00,213
2715.00,212
2714.00,209
2713.00,201
2712.00,193
2711.00,190
2710.00,192
2709.00,192
2708.00,187
2707.00,183
2706.00,181
2705.00,180
2704.00,181
2703.00,183
2702.00,181
2701.00,170
2700.00,159
2699.00,156
2698.00,154
2697.00,157
2696.00,162
2695.00,164
2694.00,160
2693.00,155
2692.00,153
2691.00,152
2690.00,166
2689.00,192
2688.00,210
2687.00,200
2686.00,188
2685.00,182
2684.00,177
2683.00,173
2682.00,168
2681.00,164
2680.00,162
2679.00,161
2678.00,155
2677.00,148
2676.00,141
2675.00,137
2674.00,133
2673.00,131
2672.00,130
2671.00,134
2670.00,142
2669.00,151
2668.00,159
2667.00,167
2666.00,185
2665.00,207
2664.00,219
2663.00,221
2662.00,224
2661.00,234
2660.00,245
2659.00,255
2658.00,263
2657.00,261
2656.00,234
2655.00,207
2654.00,188
2653.00,170
2652.00,165
2651.00,173
2650.00,178
2649.00,169
2648.00,158
2647.00,159
2646.00,167
2645.00,172
2644.00,171
2643.00,171
2642.00,178
2641.00,188
2640.00,190
2639.00,180
2638.00,171
2637.00,168
2636.00,165
2635.00,175
2634.00,193
2633.00,210
2632.00,226
2631.00,240
2630.00,243
2629.00,241
2628.00,234
2627.00,217
2626.00,201
2625.00,202
2624.00,209
2623.00,213
2622.00,214
2621.00,212
2620.00,190
2619.00,164
2618.00,149
2617.00,142
2616.00,137
2615.00,146
2614.00,155
2613.00,156
2612.00,152
2611.00,152
2610.00,168
2609.00,185
2608.00,189
2607.00,187
2606.00,186
2605.00,187
2604.00,188
2603.00,187
2602.00,185
2601.00,183
2600.00,182
2599.00,181
2598.00,179
2597.00,178
2596.00,178
2595.00,181
2594.00,182
2593.00,175
2592.00,166
2591.00,160
2590.00,159
2589.00,156
2588.00,149
2587.00,141
2586.00,131
2585.00,120
2584.00,111
2583.00,108
2582.00,106
2581.00,113
2580.00,126
2579.00,133
2578.00,118
2577.00,100
2576.00,102
2575.00,116
2574.00,133
2573.00,161
2572.00,189
2571.00,195
2570.00,184
2569.00,173
2568.00,160
2567.00,146
2566.00,145
2565.00,152
2564.00,158
2563.00,157
2562.00,156
2561.00,153
2560.00,149
2559.00,145
2558.00,143
2557.00,141
2556.00,142
2555.00,146
2554.00,148
2553.00,144
2552.00,139
2551.00,137
2550.00,138
2549.00,140
2548.00,150
2547.00,160
2546.00,159
2545.00,144
2544.00,130
2543.00,122
2542.00,114
2541.00,112
2540.00,117
2539.00,121
2538.00,123
2537.00,124
2536.00,124
2535.00,125
2534.00,126
2533.00,136
2532.00,149
2531.00,158
2530.00,157
2529.00,155
2528.00,154
2527.00,152
2526.00,151
2525.00,147
2524.00,144
2523.00,140
2522.00,134
2521.00,129
2520.00,126
2519.00,124
2518.00,129
2517.00,141
2516.00,152
2515.00,152
2514.00,151
2513.00,150
2512.00,148
2511.00,147
2510.00,144
2509.00,140
2508.00,134
2507.00,122
2506.00,109
2505.00,104
2504.00,102
2503.00,100
2502.00,101
2501.00,101
2500.00,101
2499.00,99
2498.00,98
2497.00,97
2496.00,96
2495.00,99
2494.00,108
2493.00,118
2492.00,119
2491.00,118
2490.00,116
2489.00,111
2488.00,106
2487.00,104
2486.00,106
2485.00,108
2484.00,114
2483.00,119
2482.00,124
2481.00,128
2480.00,131
2479.00,134
2478.00,135
2477.00,136
2476.00,135
2475.00,134
2474.00,128
2473.00,120
2472.00,112
2471.00,110
2470.00,108
2469.00,107
2468.00,107
2467.00,108
2466.00,109
2465.00,111
2464.00,112
2463.00,111
2462.00,110
2461.00,110
2460.00,111
2459.00,112
2458.00,111
2457.00,109
2456.00,107
2455.00,102
2454.00,97
2453.00,96
2452.00,96
2451.00,94
2450.00,84
2449.00,71
2448.00,62
2447.00,62
2446.00,61
2445.00,59
2444.00,56
2443.00,56
2442.00,70
2441.00,86
2440.00,95
2439.00,92
2438.00,89
2437.00,87
2436.00,86
2435.00,84
2434.00,83
2433.00,82
2432.00,79
2431.00,75
2430.00,70
2429.00,68
2428.00,67
2427.00,66
2426.00,65
2425.00,64
2424.00,62
2423.00,61
2422.00,60
2421.00,63
2420.00,68
2419.00,72
2418.00,72
2417.00,73
2416.00,73
2415.00,75
2414.00,77
2413.00,88
2412.00,103
2411.00,112
2410.00,92
2409.00,70
2408.00,55
2407.00,53
2406.00,52
2405.00,58
2404.00,67
2403.00,74
2402.00,76
2401.00,76
2400.00,72
2399.00,59
2398.00,47
2397.00,48
2396.00,58
2395.00,67
2394.00,68
2393.00,66
2392.00,64
2391.00,63
2390.00,61
2389.00,60
2388.00,59
2387.00,58
2386.00,58
2385.00,59
2384.00,59
2383.00,59
2382.00,58
2381.00,57
2380.00,55
2379.00,53
2378.00,53
2377.00,55
2376.00,56
2375.00,55
2374.00,53
2373.00,52
2372.00,53
2371.00,53
2370.00,52
2369.00,49
2368.00,46
2367.00,45
2366.00,44
2365.00,43
2364.00,41
2363.00,38
2362.00,36
2361.00,35
2360.00,34
2359.00,37
2358.00,44
2357.00,50
2356.00,55
2355.00,59
2354.00,62
2353.00,59
2352.00,56
2351.00,54
2350.00,53
2349.00,53
2348.00,51
2347.00,48
2346.00,44
2345.00,36
2344.00,25
2343.00,15
2342.00,12
2341.00,9
2340.00,6
2339.00,1
2338.00,-4
2337.00,-7
2336.00,-8
2335.00,-10
2334.00,-7
2333.00,-4
2332.00,2
2331.00,18
2330.00,35
2329.00,48
2328.00,47
2327.00,46
2326.00,45
2325.00,44
2324.00,43
2323.00,42
2322.00,41
2321.00,40
2320.00,36
2319.00,31
2318.00,27
2317.00,23
2316.00,20
2315.00,18
2314.00,19
2313.00,20
2312.00,21
2311.00,22
2310.00,22
2309.00,24
2308.00,28
2307.00,31
2306.00,37
2305.00,42
2304.00,47
2303.00,46
2302.00,44
2301.00,43
2300.00,43
2299.00,43
2298.00,45
2297.00,47
2296.00,50
2295.00,51
2294.00,51
2293.00,51
2292.00,49
2291.00,46
2290.00,44
2289.00,43
2288.00,42
2287.00,40
2286.00,32
2285.00,25
2284.00,19
2283.00,15
2282.00,11
2281.00,4
2280.00,-7
2279.00,-17
2278.00,-15
2277.00,-7
2276.00,1
2275.00,1
2274.00,-1
2273.00,-5
2272.00,-15
2271.00,-26
2270.00,-35
2269.00,-37
2268.00,-38
2267.00,-37
2266.00,-33
2265.00,-30
2264.00,-30
2263.00,-34
2262.00,-38
2261.00,-38
2260.00,-36
2259.00,-34
2258.00,-30
2257.00,-25
2256.00,-21
2255.00,-27
2254.00,-35
2253.00,-41
2252.00,-36
2251.00,-30
2250.00,-26
2249.00,-25
2248.00,-25
2247.00,-25
2246.00,-24
2245.00,-24
2244.00,-24
2243.00,-24
2242.00,-23
2241.00,-22
2240.00,-20
2239.00,-19
2238.00,-15
2237.00,-10
2236.00,-6
2235.00,-8
2234.00,-12
2233.00,-16
2232.00,-14
2231.00,-10
2230.00,-7
2229.00,-5
2228.00,-3
2227.00,-0
2226.00,3
2225.00,7
2224.00,7
2223.00,-0
2222.00,-8
2221.00,-13
2220.00,-17
2219.00,-20
2218.00,-20
2217.00,-16
2216.00,-12
2215.00,-11
2214.00,-12
2213.00,-13
2212.00,-13
2211.00,-14
2210.00,-15
2209.00,-16
2208.00,-17
2207.00,-17
2206.00,-16
2205.00,-14
2204.00,-12
2203.00,-13
2202.00,-13
2201.00,-15
2200.00,-17
2199.00,-20
2198.00,-21
2197.00,-13
2196.00,-4
2195.00,2
2194.00,4
2193.00,5
2192.00,5
2191.00,5
2190.00,5
2189.00,4
2188.00,2
2187.00,-1
2186.00,-5
2185.00,-12
2184.00,-18
2183.00,-22
2182.00,-23
2181.00,-24
2180.00,-25
2179.00,-26
2178.00,-27
2177.00,-28
2176.00,-30
2175.00,-32
2174.00,-33
2173.00,-32
2172.00,-32
2171.00,-33
2170.00,-34
2169.00,-34
2168.00,-35
2167.00,-36
2166.00,-37
2165.00,-38
2164.00,-39
2163.00,-40
2162.00,-37
2161.00,-32
2160.00,-28
2159.00,-25
2158.00,-23
2157.00,-20
2156.00,-19
2155.00,-17
2154.00,-17
2153.00,-19
2152.00,-23
2151.00,-27
2150.00,-28
2149.00,-28
2148.00,-29
2147.00,-30
2146.00,-31
2145.00,-32
2144.00,-34
2143.00,-36
2142.00,-37
2141.00,-39
2140.00,-41
2139.00,-43
2138.00,-44
2137.00,-46
2136.00,-47
2135.00,-48
2134.00,-50
2133.00,-51
2132.00,-48
2131.00,-45
2130.00,-43
2129.00,-45
2128.00,-47
2127.00,-49
2126.00,-54
2125.00,-58
2124.00,-63
2123.00,-64
2122.00,-65
2121.00,-66
2120.00,-65
2119.00,-63
2118.00,-62
2117.00,-62
2116.00,-63
2115.00,-63
2114.00,-57
2113.00,-50
2112.00,-43
2111.00,-40
2110.00,-37
2109.00,-35
2108.00,-35
2107.00,-37
2106.00,-38
2105.00,-37
2104.00,-36
2103.00,-35
2102.00,-37
2101.00,-40
2100.00,-42
2099.00,-35
2098.00,-26
2097.00,-17
2096.00,-12
2095.00,-7
2094.00,-3
2093.00,-1
2092.00,0
2091.00,2
2090.00,4
2089.00,6
2088.00,9
2087.00,9
2086.00,7
2085.00,5
2084.00,9
2083.00,16
2082.00,22
2081.00,23
2080.00,20
2079.00,17
2078.00,14
2077.00,11
2076.00,8
2075.00,5
2074.00,2
2073.00,-2
2072.00,-5
2071.00,-8
2070.00,-11
2069.00,-12
2068.00,-11
2067.00,-9
2066.00,-8
2065.00,-10
2064.00,-12
2063.00,-13
2062.00,-15
2061.00,-17
2060.00,-18
2059.00,-14
2058.00,-9
2057.00,-5
2056.00,-5
2055.00,-4
2054.00,-4
2053.00,-3
2052.00,-2
2051.00,0
2050.00,10
2049.00,22
2048.00,34
2047.00,35
2046.00,32
2045.00,29
2044.00,20
2043.00,10
2042.00,-1
2041.00,-2
2040.00,4
2039.00,10
2038.00,13
2037.00,12
2036.00,11
2035.00,11
2034.00,12
2033.00,12
2032.00,11
2031.00,5
2030.00,-0
2029.00,-1
2028.00,14
2027.00,31
2026.00,45
2025.00,47
2024.00,47
2023.00,47
2022.00,49
2021.00,52
2020.00,55
2019.00,58
2018.00,62
2017.00,65
2016.00,65
2015.00,64
2014.00,63
2013.00,64
2012.00,65
2011.00,67
2010.00,68
2009.00,69
2008.00,70
2007.00,70
2006.00,68
2005.00,66
2004.00,65
2003.00,65
2002.00,66
2001.00,67
2000.00,69
1999.00,71
1998.00,73
1997.00,76
1996.00,79
1995.00,81
1994.00,82
1993.00,83
1992.00,84
1991.00,83
1990.00,81
1989.00,80
1988.00,79
1987.00,80
1986.00,81
1985.00,83
1984.00,88
1983.00,94
1982.00,98
1981.00,99
1980.00,99
1979.00,99
1978.00,98
1977.00,96
1976.00,94
1975.00,96
1974.00,98
1973.00,101
1972.00,102
1971.00,101
1970.00,100
1969.00,100
1968.00,101
1967.00,102
1966.00,104
1965.00,108
1964.00,113
1963.00,116
1962.00,114
1961.00,111
1960.00,109
1959.00,110
1958.00,113
1957.00,115
1956.00,116
1955.00,116
1954.00,116
1953.00,115
1952.00,114
1951.00,113
1950.00,114
1949.00,117
1948.00,121
1947.00,124
1946.00,125
1945.00,126
1944.00,127
1943.00,127
1942.00,126
1941.00,125
1940.00,124
1939.00,123
1938.00,122
1937.00,123
1936.00,129
1935.00,135
1934.00,139
1933.00,141
1932.00,141
1931.00,142
1930.00,142
1929.00,141
1928.00,140
1927.00,140
1926.00,139
1925.00,138
1924.00,138
1923.00,140
1922.00,142
1921.00,145
1920.00,147
1919.00,149
1918.00,151
1917.00,148
1916.00,144
1915.00,142
1914.00,146
1913.00,153
1912.00,159
1911.00,162
1910.00,164
1909.00,165
1908.00,167
1907.00,172
1906.00,176
1905.00,179
1904.00,179
1903.00,178
1902.00,177
1901.00,176
1900.00,175
1899.00,174
1898.00,176
1897.00,181
1896.00,187
1895.00,191
1894.00,192
1893.00,192
1892.00,193
1891.00,193
1890.00,192
1889.00,191
1888.00,194
1887.00,199
1886.00,203
1885.00,205
1884.00,205
1883.00,204
1882.00,203
1881.00,201
1880.00,198
1879.00,195
1878.00,194
1877.00,192
1876.00,190
1875.00,189
1874.00,187
1873.00,186
1872.00,185
1871.00,185
1870.00,185
1869.00,186
1868.00,190
1867.00,194
1866.00,198
1865.00,199
1864.00,198
1863.00,198
1862.00,198
1861.00,198
1860.00,198
1859.00,198
1858.00,197
1857.00,196
1856.00,195
1855.00,196
1854.00,198
1853.00,199
1852.00,198
1851.00,196
1850.00,193
1849.00,192
1848.00,195
1847.00,198
1846.00,200
1845.00,199
1844.00,198
1843.00,196
1842.00,197
1841.00,199
1840.00,201
1839.00,203
1838.00,204
1837.00,205
1836.00,206
1835.00,208
1834.00,211
1833.00,214
1832.00,215
1831.00,214
1830.00,214
1829.00,212
1828.00,206
1827.00,201
1826.00,196
1825.00,199
1824.00,203
1823.00,207
1822.00,204
1821.00,198
1820.00,192
1819.00,188
1818.00,188
1817.00,188
1816.00,188
1815.00,189
1814.00,190
1813.00,190
1812.00,190
1811.00,189
1810.00,187
1809.00,187
1808.00,188
1807.00,189
1806.00,190
1805.00,190
1804.00,188
1803.00,187
1802.00,185
1801.00,183
1800.00,181
1799.00,182
1798.00,192
1797.00,202
1796.00,211
1795.00,213
1794.00,213
1793.00,212
1792.00,214
1791.00,219
1790.00,224
1789.00,229
1788.00,229
1787.00,229
1786.00,229
1785.00,229
1784.00,228
1783.00,227
1782.00,224
1781.00,217
1780.00,209
1779.00,202
1778.00,195
1777.00,187
1776.00,180
1775.00,177
1774.00,176
1773.00,175
1772.00,175
1771.00,174
1770.00,173
1769.00,172
1768.00,182
1767.00,197
1766.00,211
1765.00,220
1764.00,220
1763.00,220
1762.00,220
1761.00,223
1760.00,227
1759.00,230
1758.00,233
1757.00,236
1756.00,239
1755.00,242
1754.00,244
1753.00,246
1752.00,247
1751.00,248
1750.00,247
1749.00,247
1748.00,247
1747.00,247
1746.00,248
1745.00,249
1744.00,252
1743.00,257
1742.00,262
1741.00,266
1740.00,269
1739.00,272
1738.00,275
1737.00,280
1736.00,285
1735.00,290
1734.00,291
1733.00,290
1732.00,288
1731.00,286
1730.00,284
1729.00,283
1728.00,281
1727.00,280
1726.00,279
1725.00,278
1724.00,278
1723.00,282
1722.00,286
1721.00,290
1720.00,293
1719.00,295
1718.00,297
1717.00,299
1716.00,302
1715.00,305
1714.00,308
1713.00,306
1712.00,304
1711.00,302
1710.00,303
1709.00,309
1708.00,316
1707.00,322
1706.00,321
1705.00,319
1704.00,317
1703.00,317
1702.00,318
1701.00,320
1700.00,322
1699.00,329
1698.00,337
1697.00,344
1696.00,347
1695.00,346
1694.00,344
1693.00,342
1692.00,342
1691.00,342
1690.00,342
1689.00,340
1688.00,337
1687.00,333
1686.00,330
1685.00,328
1684.00,327
1683.00,325
1682.00,329
1681.00,339
1680.00,348
1679.00,356
1678.00,355
1677.00,353
1676.00,351
1675.00,350
1674.00,349
1673.00,348
1672.00,347
1671.00,345
1670.00,343
1669.00,341
1668.00,341
1667.00,344
1666.00,346
1665.00,349
1664.00,347
1663.00,346
1662.00,344
1661.00,349
1660.00,361
1659.00,373
1658.00,383
1657.00,388
1656.00,392
1655.00,395
1654.00,397
1653.00,397
1652.00,397
1651.00,397
1650.00,397
1649.00,398
1648.00,399
1647.00,396
1646.00,390
1645.00,384
1644.00,378
1643.00,379
1642.00,382
1641.00,384
1640.00,385
1639.00,383
1638.00,381
1637.00,379
1636.00,383
1635.00,391
1634.00,398
1633.00,402
1632.00,399
1631.00,396
1630.00,393
1629.00,389
1628.00,386
1627.00,383
1626.00,380
1625.00,377
1624.00,375
1623.00,373
1622.00,370
1621.00,369
1620.00,367
1619.00,366
1618.00,371
1617.00,378
1616.00,384
1615.00,390
1614.00,397
1613.00,403
1612.00,410
1611.00,414
1610.00,418
1609.00,422
1608.00,425
1607.00,424
1606.00,423
1605.00,422
1604.00,421
1603.00,418
1602.00,416
1601.00,414
1600.00,415
1599.00,415
1598.00,416
1597.00,417
1596.00,418
1595.00,419
1594.00,419
1593.00,414
1592.00,409
1591.00,404
1590.00,402
1589.00,408
1588.00,415
1587.00,421
1586.00,421
1585.00,417
1584.00,414
1583.00,411
1582.00,413
1581.00,414
1580.00,416
1579.00,416
1578.00,414
1577.00,413
1576.00,411
1575.00,411
1574.00,412
1573.00,413
1572.00,415
1571.00,419
1570.00,423
1569.00,427
1568.00,429
1567.00,429
1566.00,430
1565.00,430
1564.00,428
1563.00,425
1562.00,423
1561.00,421
1560.00,422
1559.00,422
1558.00,423
1557.00,425
1556.00,428
1555.00,431
1554.00,433
1553.00,432
1552.00,431
1551.00,431
1550.00,428
1549.00,424
1548.00,420
1547.00,416
1546.00,417
1545.00,420
1544.00,422
1543.00,425
1542.00,429
1541.00,433
1540.00,437
1539.00,439
1538.00,440
1537.00,441
1536.00,441
1535.00,439
1534.00,436
1533.00,433
1532.00,430
1531.00,429
1530.00,429
1529.00,428
1528.00,429
1527.00,432
1526.00,435
1525.00,438
1524.00,437
1523.00,436
1522.00,434
1521.00,433
1520.00,431
1519.00,429
1518.00,428
1517.00,428
1516.00,429
1515.00,431
1514.00,432
1513.00,436
1512.00,439
1511.00,443
1510.00,446
1509.00,444
1508.00,443
1507.00,441
1506.00,441
1505.00,443
1504.00,444
1503.00,445
1502.00,446
1501.00,447
1500.00,447
1499.00,448
1498.00,451
1497.00,454
1496.00,457
1495.00,458
1494.00,458
1493.00,457
1492.00,457
1491.00,457
1490.00,459
1489.00,460
1488.00,462
1487.00,462
1486.00,462
1485.00,462
1484.00,462
1483.00,461
1482.00,459
1481.00,458
1480.00,455
1479.00,450
1478.00,445
1477.00,440
1476.00,438
1475.00,437
1474.00,436
1473.00,435
1472.00,433
1471.00,431
1470.00,428
1469.00,428
1468.00,430
1467.00,431
1466.00,433
1465.00,433
1464.00,433
1463.00,432
1462.00,432
1461.00,434
1460.00,437
1459.00,439
1458.00,441
1457.00,441
1456.00,441
1455.00,440
1454.00,442
1453.00,446
1452.00,450
1451.00,454
1450.00,454
1449.00,452
1448.00,451
1447.00,449
1446.00,448
1445.00,447
1444.00,446
1443.00,446
1442.00,447
1441.00,447
1440.00,448
1439.00,448
1438.00,447
1437.00,447
1436.00,447
1435.00,448
1434.00,451
1433.00,453
1432.00,455
1431.00,455
1430.00,454
1429.00,453
1428.00,454
1427.00,460
1426.00,466
1425.00,472
1424.00,477
1423.00,478
1422.00,480
1421.00,481
1420.00,482
1419.00,481
1418.00,480
1417.00,480
1416.00,479
1415.00,478
1414.00,476
1413.00,476
1412.00,483
1411.00,491
1410.00,498
1409.00,504
1408.00,504
1407.00,504
1406.00,503
1405.00,503
1404.00,505
1403.00,506
1402.00,507
1401.00,512
1400.00,520
1399.00,528
1398.00,535
1397.00,538
1396.00,541
1395.00,543
1394.00,545
1393.00,546
1392.00,546
1391.00,546
1390.00,546
1389.00,546
1388.00,546
1387.00,546
1386.00,546
1385.00,548
1384.00,549
1383.00,550
1382.00,550
1381.00,549
1380.00,547
1379.00,546
1378.00,546
1377.00,546
1376.00,547
1375.00,548
1374.00,548
1373.00,549
1372.00,549
1371.00,549
1370.00,548
1369.00,547
1368.00,546
1367.00,545
1366.00,543
1365.00,541
1364.00,539
1363.00,538
1362.00,537
1361.00,537
1360.00,536
1359.00,535
1358.00,534
1357.00,532
1356.00,531
1355.00,529
1354.00,528
1353.00,526
1352.00,524
1351.00,521
1350.00,518
1349.00,514
1348.00,511
1347.00,509
1346.00,507
1345.00,505
1344.00,502
1343.00,497
1342.00,492
1341.00,486
1340.00,482
1339.00,480
1338.00,478
1337.00,476
1336.00,473
1335.00,469
1334.00,465
1333.00,461
1332.00,456
1331.00,450
1330.00,445
1329.00,439
1328.00,434
1327.00,430
1326.00,426
1325.00,422
1324.00,413
1323.00,402
1322.00,391
1321.00,381
1320.00,375
1319.00,372
1318.00,368
1317.00,365
1316.00,362
1315.00,359
1314.00,355
1313.00,352
1312.00,347
1311.00,342
1310.00,336
1309.00,331
1308.00,322
1307.00,314
1306.00,305
1305.00,297
1304.00,291
1303.00,286
1302.00,281
1301.00,276
1300.00,275
1299.00,274
1298.00,273
1297.00,272
1296.00,271
1295.00,269
1294.00,267
1293.00,264
1292.00,259
1291.00,253
1290.00,248
1289.00,243
1288.00,238
1287.00,234
1286.00,230
1285.00,224
1284.00,219
1283.00,214
1282.00,208
1281.00,204
1280.00,201
1279.00,199
1278.00,196
1277.00,194
1276.00,194
1275.00,193
1274.00,192
1273.00,185
1272.00,174
1271.00,164
1270.00,154
1269.00,149
1268.00,145
1267.00,141
1266.00,138
1265.00,137
1264.00,138
1263.00,139
1262.00,139
1261.00,137
1260.00,135
1259.00,132
1258.00,130
1257.00,127
1256.00,125
1255.00,122
1254.00,120
1253.00,119
1252.00,120
1251.00,120
1250.00,120
1249.00,118
1248.00,115
1247.00,112
1246.00,109
1245.00,108
1244.00,108
1243.00,108
1242.00,107
1241.00,105
1240.00,102
1239.00,99
1238.00,96
1237.00,96
1236.00,96
1235.00,96
1234.00,96
1233.00,94
1232.00,91
1231.00,89
1230.00,86
1229.00,84
1228.00,82
1227.00,80
1226.00,78
1225.00,80
1224.00,82
1223.00,84
1222.00,85
1221.00,84
1220.00,83
1219.00,81
1218.00,80
1217.00,77
1216.00,73
1215.00,70
1214.00,67
1213.00,67
1212.00,66
1211.00,66
1210.00,66
1209.00,65
1208.00,66
1207.00,66
1206.00,65
1205.00,64
1204.00,63
1203.00,62
1202.00,61
1201.00,60
1200.00,59
1199.00,59
1198.00,58
1197.00,58
1196.00,58
1195.00,58
1194.00,59
1193.00,59
1192.00,59
1191.00,59
1190.00,59
1189.00,58
1188.00,58
1187.00,57
1186.00,56
1185.00,55
1184.00,54
1183.00,53
1182.00,52
1181.00,48
1180.00,44
1179.00,39
1178.00,34
1177.00,32
1176.00,32
1175.00,31
1174.00,30
1173.00,31
1172.00,33
1171.00,35
1170.00,36
1169.00,37
1168.00,37
1167.00,37
1166.00,37
1165.00,37
1164.00,37
1163.00,37
1162.00,37
1161.00,36
1160.00,36
1159.00,35
1158.00,35
1157.00,33
1156.00,30
1155.00,27
1154.00,23
1153.00,21
1152.00,21
1151.00,20
1150.00,20
1149.00,19
1148.00,19
1147.00,19
1146.00,18
1145.00,18
1144.00,17
1143.00,17
1142.00,16
1141.00,16
1140.00,15
1139.00,14
1138.00,13
1137.00,13
1136.00,12
1135.00,12
1134.00,12
1133.00,12
1132.00,13
1131.00,14
1130.00,16
1129.00,17
1128.00,17
1127.00,17
1126.00,17
1125.00,17
1124.00,19
1123.00,21
1122.00,23
1121.00,25
1120.00,26
1119.00,26
1118.00,26
1117.00,26
1116.00,26
1115.00,25
1114.00,25
1113.00,24
1112.00,24
1111.00,23
1110.00,23
1109.00,23
1108.00,24
1107.00,24
1106.00,25
1105.00,26
1104.00,27
1103.00,26
1102.00,25
1101.00,23
1100.00,22
1099.00,18
1098.00,14
1097.00,10
1096.00,6
1095.00,5
1094.00,5
1093.00,4
1092.00,3
1091.00,3
1090.00,2
1089.00,2
1088.00,1
1087.00,1
1086.00,0
1085.00,-0
1084.00,-1
1083.00,-1
1082.00,-1
1081.00,-1
1080.00,-0
1079.00,-0
1078.00,-1
1077.00,-2
1076.00,-3
1075.00,-4
1074.00,-7
1073.00,-9
1072.00,-12
1071.00,-14
1070.00,-14
1069.00,-13
1068.00,-12
1067.00,-11
1066.00,-11
1065.00,-12
1064.00,-12
1063.00,-13
1062.00,-13
1061.00,-13
1060.00,-14
1059.00,-14
1058.00,-15
1057.00,-16
1056.00,-17
1055.00,-19
1054.00,-20
1053.00,-21
1052.00,-21
1051.00,-22
1050.00,-23
1049.00,-22
1048.00,-22
1047.00,-21
1046.00,-21
1045.00,-21
1044.00,-21
1043.00,-20
1042.00,-20
1041.00,-21
1040.00,-23
1039.00,-24
1038.00,-26
1037.00,-26
1036.00,-25
1035.00,-24
1034.00,-23
1033.00,-22
1032.00,-21
1031.00,-21
1030.00,-20
1029.00,-20
1028.00,-21
1027.00,-23
1026.00,-25
1025.00,-26
1024.00,-26
1023.00,-26
1022.00,-26
1021.00,-25
1020.00,-24
1019.00,-22
1018.00,-20
1017.00,-18
1016.00,-18
1015.00,-20
1014.00,-22
1013.00,-24
1012.00,-26
1011.00,-27
1010.00,-28
1009.00,-30
1008.00,-31
1007.00,-31
1006.00,-30
1005.00,-30
1004.00,-29
1003.00,-29
1002.00,-28
1001.00,-27
1000.00,-26
999.00,-26
998.00,-27
997.00,-29
996.00,-30
995.00,-31
994.00,-30
993.00,-28
992.00,-27
991.00,-25
990.00,-24
989.00,-23
988.00,-22
987.00,-21
986.00,-21
985.00,-21
984.00,-21
983.00,-21
982.00,-21
981.00,-21
980.00,-21
979.00,-21
978.00,-21
977.00,-21
976.00,-20
975.00,-20
974.00,-19
973.00,-19
972.00,-19
971.00,-20
970.00,-20
969.00,-21
968.00,-21
967.00,-22
966.00,-23
965.00,-23
964.00,-21
963.00,-20
962.00,-18
961.00,-16
960.00,-16
959.00,-16
958.00,-16
957.00,-15
956.00,-16
955.00,-18
954.00,-20
953.00,-21
952.00,-22
951.00,-20
950.00,-18
949.00,-16
948.00,-14
947.00,-12
946.00,-10
945.00,-9
944.00,-7
943.00,-7
942.00,-7
941.00,-7
940.00,-7
939.00,-7
938.00,-7
937.00,-7
936.00,-7
935.00,-6
934.00,-7
933.00,-7
932.00,-7
931.00,-8
930.00,-8
929.00,-8
928.00,-8
927.00,-9
926.00,-9
925.00,-10
924.00,-10
923.00,-10
922.00,-11
921.00,-12
920.00,-12
919.00,-13
918.00,-13
917.00,-13
916.00,-11
915.00,-10
914.00,-8
913.00,-7
912.00,-7
911.00,-7
910.00,-7
909.00,-7
908.00,-7
907.00,-7
906.00,-7
905.00,-7
904.00,-7
903.00,-7
902.00,-6
901.00,-6
900.00,-5
899.00,-3
898.00,-1
897.00,0
896.00,2
895.00,3
894.00,3
893.00,4
892.00,4
891.00,6
890.00,7
889.00,9
888.00,10
887.00,11
886.00,12
885.00,12
884.00,12
883.00,13
882.00,13
881.00,14
880.00,14
879.00,15
878.00,15
877.00,16
876.00,16
875.00,17
874.00,18
873.00,20
872.00,22
871.00,24
870.00,26
869.00,25
868.00,24
867.00,22
866.00,21
865.00,20
864.00,19
863.00,19
862.00,19
861.00,19
860.00,19
859.00,18
858.00,18
857.00,18
856.00,18
855.00,17
854.00,17
853.00,17
852.00,17
851.00,17
850.00,17
849.00,17
848.00,17
847.00,20
846.00,23
845.00,27
844.00,30
843.00,32
842.00,34
841.00,35
840.00,36
839.00,37
838.00,38
837.00,39
836.00,40
835.00,41
834.00,42
833.00,43
832.00,43
831.00,44
830.00,45
829.00,47
828.00,48
827.00,50
826.00,52
825.00,53
824.00,53
823.00,54
822.00,54
821.00,54
820.00,54
819.00,54
818.00,54
817.00,54
816.00,55
815.00,55
814.00,55
813.00,56
812.00,56
811.00,57
810.00,59
809.00,60
808.00,61
807.00,61
806.00,62
805.00,62
804.00,62
803.00,62
802.00,60
801.00,58
800.00,56
799.00,54
798.00,54
797.00,53
796.00,53
795.00,53
794.00,53
793.00,52
792.00,52
791.00,52
790.00,52
789.00,52
788.00,52
787.00,52
786.00,52
785.00,51
784.00,51
783.00,50
782.00,49
781.00,49
780.00,49
779.00,49
778.00,49
777.00,49
776.00,50
775.00,49
774.00,49
773.00,49
772.00,49
771.00,50
770.00,51
769.00,52
768.00,53
767.00,54
766.00,54
765.00,54
764.00,53
763.00,53
762.00,54
761.00,54
760.00,54
759.00,54
758.00,55
757.00,55
756.00,56
755.00,57
754.00,57
753.00,58
752.00,58
751.00,58
750.00,59
749.00,60
748.00,62
747.00,64
746.00,66
745.00,68
744.00,67
743.00,66
742.00,65
741.00,64
740.00,64
739.00,65
738.00,67
737.00,68
736.00,69
735.00,70
734.00,72
733.00,73
732.00,74
731.00,75
730.00,75
729.00,75
728.00,75
727.00,75
726.00,76
725.00,76
724.00,76
723.00,76
722.00,77
721.00,80
720.00,83
719.00,87
718.00,90
717.00,91
716.00,91
715.00,90
714.00,90
713.00,90
712.00,89
711.00,88
710.00,87
709.00,87
708.00,86
707.00,86
706.00,86
705.00,86
704.00,86
703.00,87
702.00,87
701.00,87
700.00,88
699.00,88
698.00,88
697.00,87
696.00,87
695.00,86
694.00,86
693.00,86
692.00,86
691.00,87
690.00,87
689.00,88
688.00,90
687.00,92
686.00,93
685.00,94
684.00,94
683.00,95
682.00,95
681.00,95
680.00,96
679.00,96
678.00,96
677.00,97
676.00,97
675.00,97
674.00,97
673.00,97
672.00,97
671.00,97
670.00,97
669.00,97
668.00,97
667.00,98
666.00,99
665.00,102
664.00,104
663.00,106
662.00,107
661.00,107
660.00,107
659.00,108
658.00,108
657.00,108
656.00,109
655.00,110
654.00,110
653.00,112
652.00,115
651.00,118
650.00,121
649.00,125
648.00,126
647.00,125
646.00,125
645.00,125
644.00,125
643.00,125
642.00,125
641.00,125
640.00,125
639.00,125
638.00,124
637.00,123
636.00,123
635.00,122
634.00,122
633.00,122
632.00,122
631.00,122
630.00,122
629.00,120
628.00,119
627.00,117
626.00,115
625.00,114
624.00,114
623.00,114
622.00,114
621.00,114
620.00,114
619.00,115
618.00,115
617.00,115
616.00,115
615.00,116
614.00,117
613.00,118
612.00,119
611.00,120
610.00,120
609.00,120
608.00,120
607.00,119
606.00,120
605.00,121
604.00,121
603.00,122
602.00,123
601.00,124
600.00,125
599.00,126
598.00,127
597.00,128
596.00,128
595.00,128
594.00,128
593.00,128
592.00,127
591.00,127
590.00,126
589.00,125
588.00,125
587.00,125
586.00,124
585.00,124
584.00,124
583.00,124
582.00,124
581.00,124
580.00,124
579.00,124
578.00,124
577.00,124
576.00,124
575.00,124
574.00,124
573.00,124
572.00,124
571.00,125
570.00,125
569.00,125
568.00,125
567.00,126
566.00,126
565.00,126
564.00,127
563.00,129
562.00,132
561.00,134
560.00,137
559.00,138
558.00,138
557.00,138
556.00,138
555.00,138
554.00,137
553.00,136
552.00,135
551.00,134
550.00,133
549.00,133
548.00,133
547.00,133
546.00,133
545.00,133
544.00,133
543.00,133
542.00,134
541.00,134
540.00,134
539.00,134
538.00,134
537.00,134
536.00,135
535.00,135
534.00,136
533.00,136
532.00,137
531.00,137
530.00,138
529.00,138
528.00,139
527.00,140
526.00,141
525.00,142
524.00,144
523.00,145
522.00,147
521.00,148
520.00,148
519.00,148
518.00,148
517.00,148
516.00,148
515.00,149
514.00,149
513.00,149
512.00,150
511.00,149
510.00,149
509.00,149
508.00,148
507.00,148
506.00,148
505.00,148
504.00,148
503.00,148
502.00,148
501.00,148
500.00,149
499.00,149
498.00,150
497.00,149
496.00,147
495.00,145
494.00,143
493.00,141
492.00,140
491.00,140
490.00,140
489.00,140
488.00,140
487.00,140
486.00,140
485.00,140
484.00,140
483.00,140
482.00,141
481.00,143
480.00,144
479.00,146
478.00,146
477.00,145
476.00,144
475.00,143
474.00,141
473.00,142
472.00,143
471.00,145
470.00,147
469.00,149
468.00,150
467.00,149
466.00,148
465.00,147
464.00,146
463.00,146
462.00,146
461.00,147
460.00,147
459.00,147
458.00,146
457.00,145
456.00,144
455.00,143
454.00,142
453.00,142
452.00,142
451.00,141
450.00,141
449.00,141
448.00,141
447.00,141
446.00,141
445.00,141
444.00,141
443.00,141
442.00,141
441.00,141
440.00,141
439.00,142
438.00,144
437.00,145
436.00,146
435.00,148
434.00,149
433.00,149
432.00,149
431.00,150
430.00,150
429.00,150
428.00,150
427.00,151
426.00,151
425.00,151
424.00,151
423.00,150
422.00,150
421.00,150
420.00,150
419.00,150
418.00,150
417.00,150
416.00,150
415.00,150
414.00,150
413.00,150
412.00,150
411.00,150
410.00,150
409.00,149
408.00,149
407.00,149
406.00,149
405.00,149
404.00,149
403.00,149
402.00,150
401.00,150
400.00,150
399.00,152
398.00,153
397.00,154
396.00,155
395.00,156
394.00,157
393.00,158
392.00,159
391.00,161
390.00,160
389.00,159
388.00,157
387.00,156
386.00,155
385.00,154
384.00,153
383.00,152
382.00,152
381.00,151
380.00,151
379.00,150
378.00,150
377.00,150
376.00,150
375.00,150
374.00,149
373.00,149
372.00,149
371.00,149
370.00,148
369.00,147
368.00,147
367.00,146
366.00,146
365.00,146
364.00,145
363.00,145
362.00,145
361.00,145
360.00,146
359.00,147
358.00,149
357.00,150
356.00,151
355.00,151
354.00,151
353.00,151
352.00,151
351.00,151
350.00,150
349.00,150
348.00,150
347.00,149
346.00,149
345.00,148
344.00,147
343.00,146
342.00,145
341.00,144
340.00,144
339.00,144
338.00,143
337.00,143
336.00,143
335.00,142
334.00,142
333.00,142
332.00,142
331.00,142
330.00,141
329.00,141
328.00,141
327.00,140
326.00,140
325.00,139
324.00,138
323.00,137
322.00,136
321.00,135
320.00,135
319.00,134
318.00,133
317.00,133
316.00,132
315.00,131
314.00,130
313.00,129
312.00,128
311.00,126
310.00,125
309.00,124
308.00,124
307.00,123
306.00,122
305.00,121
304.00,121
303.00,121
302.00,121
301.00,121
300.00,120
299.00,120
298.00,120
297.00,120
296.00,119
295.00,119
294.00,119
293.00,118
292.00,118
291.00,117
290.00,117
289.00,117
288.00,117
287.00,116
286.00,116
285.00,115
284.00,115
283.00,114
282.00,113
281.00,113
280.00,112
279.00,111
278.00,110
277.00,109
276.00,108
275.00,108
274.00,107
273.00,106
272.00,106
271.00,105
270.00,104
269.00,104
268.00,103
267.00,102
266.00,101
265.00,101
264.00,100
263.00,100
262.00,99
261.00,99
260.00,99
259.00,99
258.00,99
257.00,99
256.00,100
255.00,100
254.00,99
253.00,99
252.00,98
251.00,98
250.00,98
249.00,97
248.00,96
247.00,96
246.00,95
245.00,95
244.00,94
243.00,94
242.00,93
241.00,93
240.00,93
239.00,92
238.00,92
237.00,91
236.00,90
235.00,90
234.00,89
233.00,88
232.00,87
231.00,86
230.00,86
229.00,85
228.00,85
227.00,85
226.00,84
225.00,84
224.00,83
223.00,83
222.00,82
221.00,82
220.00,81
219.00,81
218.00,81
217.00,80
216.00,80
215.00,79
214.00,79
213.00,78
212.00,77
211.00,77
210.00,76
209.00,74
208.00,73
207.00,71
206.00,69
205.00,67
204.00,66
203.00,64
202.00,63
201.00,61
200.00,60
199.00,58
198.00,57
197.00,56
196.00,54
195.00,53
194.00,52
193.00,51
192.00,50
191.00,49
190.00,48
189.00,47
188.00,45
187.00,44
186.00,42
185.00,40
184.00,39
183.00,37
182.00,36
181.00,35
180.00,34
179.00,33
178.00,32
177.00,31
176.00,29
175.00,28
174.00,27
173.00,26
172.00,24
171.00,23
170.00,22
169.00,20
168.00,19
167.00,18
166.00,18
165.00,17
164.00,16
163.00,15
162.00,15
161.00,14
160.00,14
159.00,14
158.00,13
157.00,13
156.00,12
155.00,12
154.00,11
153.00,11
152.00,10
151.00,10
150.00,9
149.00,9
148.00,9
147.00,7
146.00,6
145.00,4
144.00,3
143.00,1
142.00,1
141.00,1
140.00,2
139.00,2
138.00,3
137.00,3
136.00,2
135.00,1
134.00,1
133.00,-0
132.00,-1
131.00,-2
130.00,-2
129.00,-3
128.00,-3
127.00,-4
126.00,-4
125.00,-5
124.00,-5
123.00,-6
122.00,-7
121.00,-7
120.00,-7
119.00,-7
118.00,-7
117.00,-7
116.00,-6
115.00,-4
114.00,-1
113.00,1
112.00,4
111.00,5
110.00,5
109.00,4
108.00,3
107.00,2
106.00,1
105.00,-1
104.00,-2
103.00,-4
102.00,-5
101.00,-7
100.00,-9
