Created as New Dataset,
Raman Shift / cm-1,INT
3200.00,180
3199.00,194
3198.00,245
3197.00,286
3196.00,316
3195.00,322
3194.00,320
3193.00,308
3192.00,296
3191.00,286
3190.00,279
3189.00,277
3188.00,306
3187.00,327
3186.00,311
3185.00,281
3184.00,244
3183.00,219
3182.00,197
3181.00,163
3180.00,114
3179.00,39
3178.00,5
3177.00,8
3176.00,65
3175.00,126
3174.00,133
3173.00,133
3172.00,133
3171.00,148
3170.00,172
3169.00,175
3168.00,159
3167.00,89
3166.00,33
3165.00,28
3164.00,21
3163.00,15
3162.00,103
3161.00,192
3160.00,62
3159.00,-61
3158.00,-74
3157.00,-33
3156.00,60
3155.00,23
3154.00,-73
3153.00,-121
3152.00,-152
3151.00,-158
3150.00,-170
3149.00,-196
3148.00,-118
3147.00,38
3146.00,167
3145.00,345
3144.00,897
3143.00,1242
3142.00,855
3141.00,594
3140.00,582
3139.00,475
3138.00,312
3137.00,159
3136.00,35
3135.00,21
3134.00,30
3133.00,57
3132.00,70
3131.00,62
3130.00,60
3129.00,58
3128.00,-3
3127.00,-73
3126.00,-87
3125.00,-92
3124.00,-94
3123.00,-37
3122.00,117
3121.00,189
3120.00,190
3119.00,259
3118.00,339
3117.00,254
3116.00,169
3115.00,272
3114.00,359
3113.00,355
3112.00,284
3111.00,122
3110.00,63
3109.00,82
3108.00,11
3107.00,-86
3106.00,-140
3105.00,-177
3104.00,-182
3103.00,-183
3102.00,-183
3101.00,-183
3100.00,-182
3099.00,-159
3098.00,-115
3097.00,-72
3096.00,-32
3095.00,-37
3094.00,-45
3093.00,26
3092.00,97
3091.00,103
3090.00,91
3089.00,48
3088.00,29
3087.00,48
3086.00,57
3085.00,57
3084.00,58
3083.00,60
3082.00,59
3081.00,63
3080.00,111
3079.00,158
3078.00,143
3077.00,129
3076.00,151
3075.00,205
3074.00,319
3073.00,362
3072.00,304
3071.00,295
3070.00,331
3069.00,317
3068.00,272
3067.00,163
3066.00,38
3065.00,11
3064.00,7
3063.00,-24
3062.00,-37
3061.00,61
3060.00,149
3059.00,154
3058.00,153
3057.00,155
3056.00,161
3055.00,173
3054.00,156
3053.00,104
3052.00,71
3051.00,56
3050.00,91
3049.00,155
3048.00,185
3047.00,199
3046.00,202
3045.00,200
3044.00,187
3043.00,177
3042.00,201
3041.00,225
3040.00,212
3039.00,195
3038.00,175
3037.00,172
3036.00,217
3035.00,251
3034.00,252
3033.00,246
3032.00,231
3031.00,228
3030.00,241
3029.00,269
3028.00,315
3027.00,321
3026.00,287
3025.00,294
3024.00,338
3023.00,480
3022.00,678
3021.00,664
3020.00,533
3019.00,421
3018.00,328
3017.00,474
3016.00,691
3015.00,608
3014.00,430
3013.00,355
3012.00,311
3011.00,267
3010.00,232
3009.00,249
3008.00,275
3007.00,279
3006.00,278
3005.00,276
3004.00,271
3003.00,247
3002.00,226
3001.00,233
3000.00,241
2999.00,230
2998.00,215
2997.00,189
2996.00,178
2995.00,233
2994.00,284
2993.00,287
2992.00,288
2991.00,296
2990.00,310
2989.00,343
2988.00,375
2987.00,399
2986.00,410
2985.00,380
2984.00,352
2983.00,349
2982.00,348
2981.00,349
2980.00,345
2979.00,323
2978.00,304
2977.00,302
2976.00,302
2975.00,303
2974.00,304
2973.00,303
2972.00,306
2971.00,325
2970.00,348
2969.00,379
2968.00,405
2967.00,407
2966.00,407
2965.00,417
2964.00,426
2963.00,426
2962.00,425
2961.00,432
2960.00,439
2959.00,449
2958.00,456
2957.00,447
2956.00,436
2955.00,440
2954.00,446
2953.00,447
2952.00,444
2951.00,417
2950.00,386
2949.00,376
2948.00,375
2947.00,373
2946.00,371
2945.00,370
2944.00,369
2943.00,369
2942.00,369
2941.00,369
2940.00,368
2939.00,370
2938.00,376
2937.00,393
2936.00,421
2935.00,414
2934.00,363
2933.00,333
2932.00,332
2931.00,333
2930.00,341
2929.00,357
2928.00,391
2927.00,423
2926.00,450
2925.00,473
2924.00,489
2923.00,503
2922.00,509
2921.00,512
2920.00,502
2919.00,492
2918.00,496
2917.00,505
2916.00,532
2915.00,562
2914.00,524
2913.00,458
2912.00,453
2911.00,487
2910.00,524
2909.00,564
2908.00,575
2907.00,553
2906.00,538
2905.00,535
2904.00,536
2903.00,542
2902.00,545
2901.00,535
2900.00,526
2899.00,521
2898.00,520
2897.00,531
2896.00,542
2895.00,525
2894.00,501
2893.00,495
2892.00,496
2891.00,501
2890.00,508
2889.00,525
2888.00,551
2887.00,558
2886.00,534
2885.00,526
2884.00,551
2883.00,571
2882.00,570
2881.00,563
2880.00,528
2879.00,491
2878.00,454
2877.00,420
2876.00,460
2875.00,525
2874.00,549
2873.00,548
2872.00,544
2871.00,536
2870.00,527
2869.00,517
2868.00,513
2867.00,524
2866.00,534
2865.00,533
2864.00,532
2863.00,531
2862.00,532
2861.00,547
2860.00,568
2859.00,575
2858.00,574
2857.00,557
2856.00,521
2855.00,504
2854.00,522
2853.00,536
2852.00,535
2851.00,531
2850.00,512
2849.00,493
2848.00,492
2847.00,497
2846.00,505
2845.00,515
2844.00,518
2843.00,514
2842.00,503
2841.00,477
2840.00,462
2839.00,486
2838.00,514
2837.00,540
2836.00,565
2835.00,566
2834.00,558
2833.00,554
2832.00,552
2831.00,553
2830.00,558
2829.00,561
2828.00,559
2827.00,556
2826.00,548
2825.00,540
2824.00,531
2823.00,523
2822.00,511
2821.00,497
2820.00,478
2819.00,453
2818.00,436
2817.00,440
2816.00,444
2815.00,448
2814.00,452
2813.00,473
2812.00,500
2811.00,505
2810.00,497
2809.00,495
2808.00,504
2807.00,510
2806.00,507
2805.00,503
2804.00,501
2803.00,499
2802.00,490
2801.00,477
2800.00,478
2799.00,492
2798.00,497
2797.00,485
2796.00,477
2795.00,492
2794.00,510
2793.00,531
2792.00,555
2791.00,572
2790.00,584
2789.00,584
2788.00,561
2787.00,546
2786.00,559
2785.00,574
2784.00,576
2783.00,575
2782.00,589
2781.00,612
2780.00,625
2779.00,623
2778.00,622
2777.00,628
2776.00,633
2775.00,624
2774.00,611
2773.00,600
2772.00,591
2771.00,589
2770.00,600
2769.00,609
2768.00,607
2767.00,604
2766.00,602
2765.00,600
2764.00,597
2763.00,595
2762.00,594
2761.00,596
2760.00,596
2759.00,583
2758.00,568
2757.00,562
2756.00,559
2755.00,555
2754.00,552
2753.00,547
2752.00,537
2751.00,526
2750.00,522
2749.00,519
2748.00,524
2747.00,533
2746.00,540
2745.00,541
2744.00,542
2743.00,540
2742.00,537
2741.00,530
2740.00,521
2739.00,511
2738.00,500
2737.00,492
2736.00,496
2735.00,501
2734.00,506
2733.00,511
2732.00,515
2731.00,517
2730.00,524
2729.00,544
2728.00,563
2727.00,565
2726.00,562
2725.00,563
2724.00,567
2723.00,569
2722.00,565
2721.00,563
2720.00,580
2719.00,600
2718.00,606
2717.00,604
2716.00,606
2715.00,613
2714.00,618
2713.00,610
2712.00,600
2711.00,568
2710.00,524
2709.00,493
2708.00,490
2707.00,491
2706.00,507
2705.00,526
2704.00,525
2703.00,512
2702.00,508
2701.00,523
2700.00,538
2699.00,543
2698.00,546
2697.00,545
2696.00,541
2695.00,539
2694.00,542
2693.00,546
2692.00,550
2691.00,554
2690.00,563
2689.00,575
2688.00,583
2687.00,577
2686.00,570
2685.00,569
2684.00,569
2683.00,568
2682.00,565
2681.00,564
2680.00,570
2679.00,577
2678.00,576
2677.00,571
2676.00,567
2675.00,568
2674.00,567
2673.00,565
2672.00,562
2671.00,561
2670.00,561
2669.00,562
2668.00,565
2667.00,567
2666.00,569
2665.00,570
2664.00,570
2663.00,570
2662.00,571
2661.00,578
2660.00,586
2659.00,616
2658.00,661
2657.00,686
2656.00,658
2655.00,630
2654.00,608
2653.00,587
2652.00,575
2651.00,573
2650.00,572
2649.00,576
2648.00,580
2647.00,580
2646.00,578
2645.00,571
2644.00,554
2643.00,538
2642.00,538
2641.00,544
2640.00,551
2639.00,563
2638.00,570
2637.00,551
2636.00,529
2635.00,519
2634.00,518
2633.00,518
2632.00,516
2631.00,515
2630.00,526
2629.00,541
2628.00,550
2627.00,548
2626.00,546
2625.00,547
2624.00,549
2623.00,558
2622.00,575
2621.00,590
2620.00,588
2619.00,583
2618.00,578
2617.00,574
2616.00,571
2615.00,578
2614.00,586
2613.00,581
2612.00,570
2611.00,560
2610.00,557
2609.00,554
2608.00,548
2607.00,541
2606.00,540
2605.00,552
2604.00,563
2603.00,562
2602.00,559
2601.00,555
2600.00,552
2599.00,550
2598.00,561
2597.00,575
2596.00,583
2595.00,583
2594.00,580
2593.00,559
2592.00,535
2591.00,521
2590.00,517
2589.00,515
2588.00,522
2587.00,530
2586.00,528
2585.00,517
2584.00,507
2583.00,502
2582.00,498
2581.00,516
2580.00,550
2579.00,575
2578.00,562
2577.00,544
2576.00,526
2575.00,507
2574.00,492
2573.00,491
2572.00,493
2571.00,503
2570.00,521
2569.00,535
2568.00,531
2567.00,526
2566.00,526
2565.00,528
2564.00,528
2563.00,516
2562.00,504
2561.00,508
2560.00,524
2559.00,533
2558.00,509
2557.00,482
2556.00,472
2555.00,475
2554.00,482
2553.00,508
2552.00,537
2551.00,549
2550.00,548
2549.00,546
2548.00,539
2547.00,532
2546.00,525
2545.00,520
2544.00,516
2543.00,518
2542.00,521
2541.00,516
2540.00,499
2539.00,483
2538.00,482
2537.00,483
2536.00,484
2535.00,484
2534.00,483
2533.00,484
2532.00,485
2531.00,485
2530.00,481
2529.00,478
2528.00,481
2527.00,488
2526.00,497
2525.00,511
2524.00,526
2523.00,523
2522.00,509
2521.00,497
2520.00,494
2519.00,492
2518.00,489
2517.00,485
2516.00,480
2515.00,473
2514.00,465
2513.00,458
2512.00,451
2511.00,444
2510.00,437
2509.00,431
2508.00,425
2507.00,420
2506.00,415
2505.00,411
2504.00,406
2503.00,403
2502.00,410
2501.00,418
2500.00,419
2499.00,416
2498.00,412
2497.00,404
2496.00,395
2495.00,394
2494.00,405
2493.00,416
2492.00,417
2491.00,414
2490.00,410
2489.00,402
2488.00,394
2487.00,390
2486.00,389
2485.00,389
2484.00,395
2483.00,402
2482.00,409
2481.00,417
2480.00,425
2479.00,426
2478.00,425
2477.00,423
2476.00,416
2475.00,410
2474.00,400
2473.00,389
2472.00,379
2471.00,374
2470.00,370
2469.00,364
2468.00,353
2467.00,343
2466.00,342
2465.00,344
2464.00,349
2463.00,362
2462.00,376
2461.00,382
2460.00,382
2459.00,382
2458.00,379
2457.00,375
2456.00,371
2455.00,365
2454.00,360
2453.00,356
2452.00,354
2451.00,350
2450.00,336
2449.00,319
2448.00,308
2447.00,308
2446.00,307
2445.00,303
2444.00,298
2443.00,295
2442.00,305
2441.00,317
2440.00,320
2439.00,313
2438.00,305
2437.00,313
2436.00,326
2435.00,337
2434.00,335
2433.00,331
2432.00,324
2431.00,311
2430.00,298
2429.00,292
2428.00,289
2427.00,286
2426.00,283
2425.00,279
2424.00,271
2423.00,256
2422.00,242
2421.00,236
2420.00,232
2419.00,230
2418.00,237
2417.00,244
2416.00,248
2415.00,247
2414.00,247
2413.00,258
2412.00,274
2411.00,285
2410.00,272
2409.00,256
2408.00,249
2407.00,256
2406.00,264
2405.00,280
2404.00,301
2403.00,317
2402.00,308
2401.00,294
2400.00,279
2399.00,261
2398.00,243
2397.00,240
2396.00,246
2395.00,252
2394.00,249
2393.00,245
2392.00,241
2391.00,237
2390.00,233
2389.00,239
2388.00,257
2387.00,273
2386.00,276
2385.00,275
2384.00,273
2383.00,268
2382.00,263
2381.00,259
2380.00,258
2379.00,256
2378.00,250
2377.00,243
2376.00,235
2375.00,230
2374.00,226
2373.00,222
2372.00,219
2371.00,216
2370.00,218
2369.00,223
2368.00,229
2367.00,228
2366.00,224
2365.00,220
2364.00,215
2363.00,211
2362.00,206
2361.00,203
2360.00,200
2359.00,199
2358.00,199
2357.00,200
2356.00,215
2355.00,236
2354.00,253
2353.00,255
2352.00,255
2351.00,253
2350.00,248
2349.00,243
2348.00,237
2347.00,229
2346.00,220
2345.00,215
2344.00,210
2343.00,204
2342.00,192
2341.00,179
2340.00,167
2339.00,157
2338.00,148
2337.00,144
2336.00,147
2335.00,149
2334.00,147
2333.00,143
2332.00,139
2331.00,139
2330.00,140
2329.00,140
2328.00,139
2327.00,137
2326.00,146
2325.00,169
2324.00,192
2323.00,182
2322.00,153
2321.00,127
2320.00,133
2319.00,149
2318.00,161
2317.00,150
2316.00,136
2315.00,126
2314.00,125
2313.00,123
2312.00,116
2311.00,103
2310.00,89
2309.00,81
2308.00,76
2307.00,70
2306.00,68
2305.00,65
2304.00,63
2303.00,58
2302.00,54
2301.00,50
2300.00,47
2299.00,45
2298.00,42
2297.00,41
2296.00,39
2295.00,44
2294.00,51
2293.00,58
2292.00,57
2291.00,54
2290.00,51
2289.00,52
2288.00,53
2287.00,54
2286.00,56
2285.00,59
2284.00,58
2283.00,52
2282.00,46
2281.00,44
2280.00,44
2279.00,45
2278.00,40
2277.00,32
2276.00,24
2275.00,20
2274.00,16
2273.00,11
2272.00,-0
2271.00,-13
2270.00,-15
2269.00,12
2268.00,40
2267.00,55
2266.00,45
2265.00,34
2264.00,28
2263.00,26
2262.00,24
2261.00,23
2260.00,21
2259.00,19
2258.00,15
2257.00,10
2256.00,5
2255.00,1
2254.00,-2
2253.00,-6
2252.00,-9
2251.00,-11
2250.00,-13
2249.00,-12
2248.00,-11
2247.00,-12
2246.00,-19
2245.00,-27
2244.00,-23
2243.00,-9
2242.00,5
2241.00,10
2240.00,9
2239.00,9
2238.00,6
2237.00,3
2236.00,-1
2235.00,-13
2234.00,-27
2233.00,-39
2232.00,-35
2231.00,-28
2230.00,-23
2229.00,-26
2228.00,-29
2227.00,-31
2226.00,-32
2225.00,-32
2224.00,-31
2223.00,-29
2222.00,-26
2221.00,-27
2220.00,-33
2219.00,-39
2218.00,-45
2217.00,-52
2216.00,-59
2215.00,-63
2214.00,-65
2213.00,-68
2212.00,-68
2211.00,-67
2210.00,-66
2209.00,-67
2208.00,-69
2207.00,-70
2206.00,-62
2205.00,-53
2204.00,-44
2203.00,-41
2202.00,-39
2201.00,-37
2200.00,-41
2199.00,-45
2198.00,-50
2197.00,-58
2196.00,-66
2195.00,-75
2194.00,-91
2193.00,-107
2192.00,-119
2191.00,-121
2190.00,-123
2189.00,-125
2188.00,-128
2187.00,-130
2186.00,-127
2185.00,-118
2184.00,-109
2183.00,-102
2182.00,-95
2181.00,-89
2180.00,-87
2179.00,-89
2178.00,-91
2177.00,-86
2176.00,-78
2175.00,-70
2174.00,-66
2173.00,-66
2172.00,-65
2171.00,-66
2170.00,-69
2169.00,-72
2168.00,-75
2167.00,-77
2166.00,-80
2165.00,-83
2164.00,-86
2163.00,-89
2162.00,-94
2161.00,-99
2160.00,-104
2159.00,-110
2158.00,-115
2157.00,-120
2156.00,-117
2155.00,-112
2154.00,-109
2153.00,-113
2152.00,-120
2151.00,-126
2150.00,-122
2149.00,-116
2148.00,-110
2147.00,-107
2146.00,-105
2145.00,-102
2144.00,-96
2143.00,-90
2142.00,-84
2141.00,-88
2140.00,-93
2139.00,-98
2138.00,-103
2137.00,-107
2136.00,-111
2135.00,-115
2134.00,-119
2133.00,-123
2132.00,-127
2131.00,-131
2130.00,-133
2129.00,-125
2128.00,-116
2127.00,-108
2126.00,-110
2125.00,-113
2124.00,-115
2123.00,-113
2122.00,-110
2121.00,-106
2120.00,-90
2119.00,-73
2118.00,-58
2117.00,-58
2116.00,-61
2115.00,-63
2114.00,-62
2113.00,-61
2112.00,-61
2111.00,-67
2110.00,-74
2109.00,-79
2108.00,-73
2107.00,-64
2106.00,-56
2105.00,-60
2104.00,-66
2103.00,-72
2102.00,-72
2101.00,-69
2100.00,-67
2099.00,-67
2098.00,-69
2097.00,-70
2096.00,-68
2095.00,-65
2094.00,-62
2093.00,-62
2092.00,-64
2091.00,-66
2090.00,-58
2089.00,-44
2088.00,-32
2087.00,-30
2086.00,-34
2085.00,-39
2084.00,-42
2083.00,-46
2082.00,-50
2081.00,-49
2080.00,-45
2079.00,-42
2078.00,-43
2077.00,-48
2076.00,-54
2075.00,-55
2074.00,-52
2073.00,-48
2072.00,-44
2071.00,-39
2070.00,-33
2069.00,-24
2068.00,-7
2067.00,10
2066.00,21
2065.00,15
2064.00,9
2063.00,5
2062.00,13
2061.00,22
2060.00,27
2059.00,19
2058.00,10
2057.00,3
2056.00,5
2055.00,9
2054.00,12
2053.00,11
2052.00,10
2051.00,9
2050.00,10
2049.00,12
2048.00,14
2047.00,13
2046.00,12
2045.00,11
2044.00,8
2043.00,5
2042.00,2
2041.00,1
2040.00,2
2039.00,3
2038.00,16
2037.00,43
2036.00,69
2035.00,90
2034.00,101
2033.00,112
2032.00,116
2031.00,103
2030.00,89
2029.00,80
2028.00,85
2027.00,91
2026.00,94
2025.00,87
2024.00,78
2023.00,71
2022.00,74
2021.00,79
2020.00,85
2019.00,93
2018.00,101
2017.00,109
2016.00,117
2015.00,124
2014.00,130
2013.00,135
2012.00,137
2011.00,140
2010.00,144
2009.00,150
2008.00,157
2007.00,165
2006.00,176
2005.00,188
2004.00,197
2003.00,200
2002.00,203
2001.00,205
2000.00,206
1999.00,207
1998.00,207
1997.00,209
1996.00,210
1995.00,212
1994.00,221
1993.00,234
1992.00,246
1991.00,249
1990.00,245
1989.00,240
1988.00,239
1987.00,241
1986.00,243
1985.00,248
1984.00,261
1983.00,274
1982.00,285
1981.00,282
1980.00,277
1979.00,272
1978.00,272
1977.00,272
1976.00,273
1975.00,280
1974.00,291
1973.00,302
1972.00,310
1971.00,315
1970.00,320
1969.00,323
1968.00,322
1967.00,321
1966.00,322
1965.00,329
1964.00,337
1963.00,344
1962.00,352
1961.00,359
1960.00,366
1959.00,365
1958.00,360
1957.00,356
1956.00,357
1955.00,362
1954.00,367
1953.00,372
1952.00,376
1951.00,380
1950.00,385
1949.00,390
1948.00,395
1947.00,401
1946.00,409
1945.00,417
1944.00,426
1943.00,435
1942.00,443
1941.00,451
1940.00,457
1939.00,460
1938.00,463
1937.00,464
1936.00,462
1935.00,459
1934.00,456
1933.00,455
1932.00,455
1931.00,455
1930.00,462
1929.00,472
1928.00,481
1927.00,490
1926.00,499
1925.00,508
1924.00,518
1923.00,529
1922.00,540
1921.00,549
1920.00,554
1919.00,559
1918.00,562
1917.00,555
1916.00,547
1915.00,539
1914.00,538
1913.00,538
1912.00,538
1911.00,543
1910.00,551
1909.00,559
1908.00,563
1907.00,561
1906.00,559
1905.00,558
1904.00,565
1903.00,572
1902.00,580
1901.00,582
1900.00,581
1899.00,581
1898.00,579
1897.00,576
1896.00,572
1895.00,572
1894.00,578
1893.00,585
1892.00,592
1891.00,596
1890.00,601
1889.00,605
1888.00,605
1887.00,604
1886.00,603
1885.00,607
1884.00,617
1883.00,627
1882.00,632
1881.00,627
1880.00,622
1879.00,617
1878.00,620
1877.00,625
1876.00,630
1875.00,630
1874.00,627
1873.00,624
1872.00,622
1871.00,622
1870.00,623
1869.00,622
1868.00,618
1867.00,613
1866.00,609
1865.00,614
1864.00,622
1863.00,629
1862.00,630
1861.00,624
1860.00,617
1859.00,612
1858.00,608
1857.00,605
1856.00,602
1855.00,597
1854.00,592
1853.00,587
1852.00,587
1851.00,592
1850.00,596
1849.00,600
1848.00,602
1847.00,603
1846.00,605
1845.00,608
1844.00,611
1843.00,613
1842.00,612
1841.00,609
1840.00,605
1839.00,602
1838.00,600
1837.00,598
1836.00,596
1835.00,593
1834.00,589
1833.00,585
1832.00,593
1831.00,606
1830.00,619
1829.00,628
1828.00,630
1827.00,632
1826.00,634
1825.00,642
1824.00,651
1823.00,659
1822.00,660
1821.00,657
1820.00,654
1819.00,653
1818.00,654
1817.00,655
1816.00,656
1815.00,654
1814.00,652
1813.00,649
1812.00,649
1811.00,651
1810.00,652
1809.00,653
1808.00,655
1807.00,657
1806.00,659
1805.00,657
1804.00,654
1803.00,652
1802.00,650
1801.00,648
1800.00,646
1799.00,643
1798.00,639
1797.00,635
1796.00,632
1795.00,630
1794.00,628
1793.00,627
1792.00,629
1791.00,635
1790.00,642
1789.00,648
1788.00,652
1787.00,656
1786.00,660
1785.00,657
1784.00,650
1783.00,643
1782.00,639
1781.00,642
1780.00,645
1779.00,649
1778.00,668
1777.00,688
1776.00,709
1775.00,721
1774.00,725
1773.00,729
1772.00,732
1771.00,730
1770.00,727
1769.00,724
1768.00,724
1767.00,725
1766.00,726
1765.00,727
1764.00,729
1763.00,732
1762.00,735
1761.00,747
1760.00,761
1759.00,775
1758.00,784
1757.00,788
1756.00,793
1755.00,797
1754.00,797
1753.00,797
1752.00,797
1751.00,796
1750.00,794
1749.00,792
1748.00,794
1747.00,803
1746.00,814
1745.00,823
1744.00,830
1743.00,836
1742.00,843
1741.00,845
1740.00,841
1739.00,838
1738.00,835
1737.00,832
1736.00,829
1735.00,826
1734.00,830
1733.00,842
1732.00,853
1731.00,863
1730.00,869
1729.00,875
1728.00,880
1727.00,883
1726.00,883
1725.00,884
1724.00,888
1723.00,903
1722.00,918
1721.00,932
1720.00,933
1719.00,929
1718.00,924
1717.00,924
1716.00,930
1715.00,937
1714.00,944
1713.00,942
1712.00,939
1711.00,936
1710.00,941
1709.00,962
1708.00,982
1707.00,1000
1706.00,1006
1705.00,1008
1704.00,1010
1703.00,1009
1702.00,1006
1701.00,1002
1700.00,999
1699.00,1006
1698.00,1014
1697.00,1022
1696.00,1033
1695.00,1045
1694.00,1058
1693.00,1069
1692.00,1070
1691.00,1070
1690.00,1070
1689.00,1072
1688.00,1075
1687.00,1078
1686.00,1080
1685.00,1075
1684.00,1069
1683.00,1063
1682.00,1069
1681.00,1088
1680.00,1106
1679.00,1122
1678.00,1134
1677.00,1144
1676.00,1155
1675.00,1158
1674.00,1156
1673.00,1153
1672.00,1153
1671.00,1163
1670.00,1174
1669.00,1185
1668.00,1190
1667.00,1187
1666.00,1185
1665.00,1183
1664.00,1182
1663.00,1182
1662.00,1182
1661.00,1194
1660.00,1218
1659.00,1242
1658.00,1264
1657.00,1268
1656.00,1269
1655.00,1270
1654.00,1268
1653.00,1261
1652.00,1255
1651.00,1249
1650.00,1247
1649.00,1245
1648.00,1243
1647.00,1245
1646.00,1252
1645.00,1260
1644.00,1267
1643.00,1269
1642.00,1270
1641.00,1271
1640.00,1273
1639.00,1276
1638.00,1279
1637.00,1282
1636.00,1284
1635.00,1285
1634.00,1287
1633.00,1287
1632.00,1283
1631.00,1279
1630.00,1274
1629.00,1273
1628.00,1273
1627.00,1273
1626.00,1273
1625.00,1271
1624.00,1268
1623.00,1266
1622.00,1265
1621.00,1264
1620.00,1264
1619.00,1264
1618.00,1269
1617.00,1274
1616.00,1280
1615.00,1291
1614.00,1312
1613.00,1333
1612.00,1352
1611.00,1352
1610.00,1346
1609.00,1341
1608.00,1337
1607.00,1339
1606.00,1340
1605.00,1342
1604.00,1340
1603.00,1337
1602.00,1334
1601.00,1332
1600.00,1333
1599.00,1334
1598.00,1335
1597.00,1332
1596.00,1327
1595.00,1321
1594.00,1316
1593.00,1312
1592.00,1309
1591.00,1305
1590.00,1305
1589.00,1314
1588.00,1323
1587.00,1331
1586.00,1335
1585.00,1337
1584.00,1339
1583.00,1340
1582.00,1337
1581.00,1333
1580.00,1330
1579.00,1328
1578.00,1327
1577.00,1325
1576.00,1325
1575.00,1329
1574.00,1334
1573.00,1340
1572.00,1350
1571.00,1366
1570.00,1382
1569.00,1398
1568.00,1404
1567.00,1404
1566.00,1405
1565.00,1405
1564.00,1406
1563.00,1407
1562.00,1409
1561.00,1410
1560.00,1413
1559.00,1416
1558.00,1418
1557.00,1418
1556.00,1417
1555.00,1416
1554.00,1414
1553.00,1406
1552.00,1398
1551.00,1390
1550.00,1385
1549.00,1382
1548.00,1379
1547.00,1377
1546.00,1392
1545.00,1411
1544.00,1430
1543.00,1445
1542.00,1444
1541.00,1442
1540.00,1440
1539.00,1437
1538.00,1435
1537.00,1432
1536.00,1430
1535.00,1432
1534.00,1434
1533.00,1437
1532.00,1441
1531.00,1446
1530.00,1450
1529.00,1455
1528.00,1459
1527.00,1462
1526.00,1464
1525.00,1467
1524.00,1467
1523.00,1467
1522.00,1467
1521.00,1466
1520.00,1459
1519.00,1453
1518.00,1446
1517.00,1446
1516.00,1452
1515.00,1457
1514.00,1462
1513.00,1463
1512.00,1463
1511.00,1463
1510.00,1462
1509.00,1459
1508.00,1456
1507.00,1453
1506.00,1450
1505.00,1447
1504.00,1445
1503.00,1442
1502.00,1448
1501.00,1456
1500.00,1464
1499.00,1471
1498.00,1475
1497.00,1479
1496.00,1483
1495.00,1486
1494.00,1486
1493.00,1486
1492.00,1486
1491.00,1484
1490.00,1481
1489.00,1477
1488.00,1475
1487.00,1475
1486.00,1476
1485.00,1476
1484.00,1476
1483.00,1473
1482.00,1469
1481.00,1466
1480.00,1463
1479.00,1460
1478.00,1457
1477.00,1453
1476.00,1450
1475.00,1447
1474.00,1444
1473.00,1442
1472.00,1442
1471.00,1442
1470.00,1443
1469.00,1446
1468.00,1454
1467.00,1461
1466.00,1469
1465.00,1472
1464.00,1472
1463.00,1472
1462.00,1472
1461.00,1477
1460.00,1483
1459.00,1488
1458.00,1493
1457.00,1494
1456.00,1495
1455.00,1496
1454.00,1496
1453.00,1494
1452.00,1492
1451.00,1490
1450.00,1490
1449.00,1491
1448.00,1492
1447.00,1493
1446.00,1492
1445.00,1490
1444.00,1489
1443.00,1491
1442.00,1502
1441.00,1513
1440.00,1524
1439.00,1531
1438.00,1534
1437.00,1537
1436.00,1540
1435.00,1546
1434.00,1552
1433.00,1559
1432.00,1565
1431.00,1570
1430.00,1574
1429.00,1578
1428.00,1582
1427.00,1583
1426.00,1583
1425.00,1584
1424.00,1585
1423.00,1584
1422.00,1584
1421.00,1584
1420.00,1585
1419.00,1588
1418.00,1590
1417.00,1594
1416.00,1613
1415.00,1639
1414.00,1665
1413.00,1688
1412.00,1690
1411.00,1689
1410.00,1688
1409.00,1691
1408.00,1707
1407.00,1726
1406.00,1743
1405.00,1755
1404.00,1757
1403.00,1760
1402.00,1762
1401.00,1773
1400.00,1791
1399.00,1809
1398.00,1825
1397.00,1829
1396.00,1828
1395.00,1827
1394.00,1826
1393.00,1827
1392.00,1828
1391.00,1829
1390.00,1830
1389.00,1830
1388.00,1829
1387.00,1828
1386.00,1828
1385.00,1829
1384.00,1831
1383.00,1832
1382.00,1830
1381.00,1826
1380.00,1822
1379.00,1818
1378.00,1824
1377.00,1836
1376.00,1848
1375.00,1859
1374.00,1863
1373.00,1864
1372.00,1865
1371.00,1865
1370.00,1863
1369.00,1861
1368.00,1858
1367.00,1856
1366.00,1853
1365.00,1851
1364.00,1848
1363.00,1846
1362.00,1844
1361.00,1843
1360.00,1841
1359.00,1832
1358.00,1816
1357.00,1799
1356.00,1783
1355.00,1773
1354.00,1766
1353.00,1760
1352.00,1753
1351.00,1739
1350.00,1722
1349.00,1705
1348.00,1689
1347.00,1678
1346.00,1667
1345.00,1657
1344.00,1645
1343.00,1629
1342.00,1613
1341.00,1597
1340.00,1580
1339.00,1565
1338.00,1550
1337.00,1534
1336.00,1520
1335.00,1511
1334.00,1502
1333.00,1493
1332.00,1483
1331.00,1472
1330.00,1462
1329.00,1452
1328.00,1431
1327.00,1402
1326.00,1372
1325.00,1342
1324.00,1314
1323.00,1287
1322.00,1261
1321.00,1235
1320.00,1221
1319.00,1213
1318.00,1205
1317.00,1195
1316.00,1173
1315.00,1146
1314.00,1119
1313.00,1095
1312.00,1080
1311.00,1066
1310.00,1052
1309.00,1038
1308.00,1016
1307.00,994
1306.00,972
1305.00,949
1304.00,928
1303.00,908
1302.00,889
1301.00,868
1300.00,849
1299.00,830
1298.00,811
1297.00,794
1296.00,779
1295.00,765
1294.00,751
1293.00,736
1292.00,722
1291.00,708
1290.00,693
1289.00,680
1288.00,669
1287.00,658
1286.00,646
1285.00,628
1284.00,604
1283.00,580
1282.00,556
1281.00,541
1280.00,534
1279.00,526
1278.00,518
1277.00,508
1276.00,497
1275.00,487
1274.00,476
1273.00,465
1272.00,453
1271.00,442
1270.00,431
1269.00,420
1268.00,410
1267.00,399
1266.00,389
1265.00,385
1264.00,382
1263.00,379
1262.00,376
1261.00,371
1260.00,365
1259.00,359
1258.00,354
1257.00,349
1256.00,344
1255.00,339
1254.00,334
1253.00,330
1252.00,326
1251.00,322
1250.00,318
1249.00,318
1248.00,319
1247.00,319
1246.00,319
1245.00,307
1244.00,292
1243.00,278
1242.00,266
1241.00,264
1240.00,263
1239.00,262
1238.00,261
1237.00,257
1236.00,253
1235.00,248
1234.00,244
1233.00,239
1232.00,235
1231.00,231
1230.00,226
1229.00,219
1228.00,213
1227.00,206
1226.00,200
1225.00,197
1224.00,196
1223.00,194
1222.00,192
1221.00,190
1220.00,187
1219.00,185
1218.00,183
1217.00,180
1216.00,178
1215.00,176
1214.00,174
1213.00,168
1212.00,163
1211.00,157
1210.00,152
1209.00,152
1208.00,153
1207.00,153
1206.00,154
1205.00,153
1204.00,151
1203.00,150
1202.00,148
1201.00,147
1200.00,145
1199.00,144
1198.00,143
1197.00,143
1196.00,144
1195.00,144
1194.00,144
1193.00,142
1192.00,139
1191.00,135
1190.00,132
1189.00,131
1188.00,130
1187.00,130
1186.00,129
1185.00,126
1184.00,123
1183.00,119
1182.00,116
1181.00,112
1180.00,108
1179.00,104
1178.00,100
1177.00,96
1176.00,92
1175.00,88
1174.00,84
1173.00,81
1172.00,78
1171.00,76
1170.00,73
1169.00,70
1168.00,67
1167.00,65
1166.00,62
1165.00,61
1164.00,60
1163.00,60
1162.00,60
1161.00,60
1160.00,59
1159.00,59
1158.00,59
1157.00,59
1156.00,59
1155.00,60
1154.00,60
1153.00,60
1152.00,57
1151.00,54
1150.00,51
1149.00,48
1148.00,45
1147.00,41
1146.00,37
1145.00,34
1144.00,33
1143.00,33
1142.00,33
1141.00,34
1140.00,35
1139.00,36
1138.00,37
1137.00,38
1136.00,35
1135.00,33
1134.00,30
1133.00,28
1132.00,28
1131.00,29
1130.00,30
1129.00,31
1128.00,29
1127.00,27
1126.00,24
1125.00,22
1124.00,21
1123.00,21
1122.00,20
1121.00,20
1120.00,20
1119.00,21
1118.00,22
1117.00,23
1116.00,21
1115.00,17
1114.00,13
1113.00,10
1112.00,8
1111.00,9
1110.00,10
1109.00,12
1108.00,11
1107.00,5
1106.00,-1
1105.00,-8
1104.00,-14
1103.00,-18
1102.00,-23
1101.00,-27
1100.00,-32
1099.00,-35
1098.00,-38
1097.00,-41
1096.00,-44
1095.00,-46
1094.00,-47
1093.00,-49
1092.00,-51
1091.00,-50
1090.00,-49
1089.00,-48
1088.00,-46
1087.00,-46
1086.00,-46
1085.00,-47
1084.00,-48
1083.00,-48
1082.00,-48
1081.00,-49
1080.00,-49
1079.00,-50
1078.00,-52
1077.00,-54
1076.00,-55
1075.00,-57
1074.00,-59
1073.00,-62
1072.00,-64
1071.00,-66
1070.00,-67
1069.00,-67
1068.00,-68
1067.00,-68
1066.00,-69
1065.00,-71
1064.00,-73
1063.00,-74
1062.00,-76
1061.00,-78
1060.00,-80
1059.00,-82
1058.00,-83
1057.00,-83
1056.00,-83
1055.00,-82
1054.00,-82
1053.00,-80
1052.00,-79
1051.00,-78
1050.00,-76
1049.00,-75
1048.00,-74
1047.00,-73
1046.00,-72
1045.00,-74
1044.00,-76
1043.00,-78
1042.00,-80
1041.00,-82
1040.00,-85
1039.00,-87
1038.00,-89
1037.00,-90
1036.00,-90
1035.00,-89
1034.00,-88
1033.00,-89
1032.00,-96
1031.00,-102
1030.00,-109
1029.00,-115
1028.00,-115
1027.00,-114
1026.00,-113
1025.00,-112
1024.00,-110
1023.00,-108
1022.00,-106
1021.00,-104
1020.00,-103
1019.00,-101
1018.00,-100
1017.00,-98
1016.00,-97
1015.00,-96
1014.00,-95
1013.00,-94
1012.00,-93
1011.00,-92
1010.00,-92
1009.00,-91
1008.00,-90
1007.00,-88
1006.00,-86
1005.00,-84
1004.00,-82
1003.00,-84
1002.00,-89
1001.00,-94
1000.00,-98
999.00,-101
998.00,-100
997.00,-98
996.00,-97
995.00,-95
994.00,-92
993.00,-89
992.00,-85
991.00,-82
990.00,-79
989.00,-76
988.00,-73
987.00,-70
986.00,-68
985.00,-67
984.00,-65
983.00,-64
982.00,-62
981.00,-61
980.00,-61
979.00,-60
978.00,-59
977.00,-59
976.00,-59
975.00,-59
974.00,-60
973.00,-60
972.00,-60
971.00,-60
970.00,-59
969.00,-59
968.00,-59
967.00,-58
966.00,-58
965.00,-57
964.00,-56
963.00,-55
962.00,-54
961.00,-53
960.00,-52
959.00,-50
958.00,-48
957.00,-47
956.00,-45
955.00,-44
954.00,-42
953.00,-40
952.00,-39
951.00,-37
950.00,-35
949.00,-34
948.00,-32
947.00,-29
946.00,-25
945.00,-21
944.00,-18
943.00,-16
942.00,-14
941.00,-13
940.00,-12
939.00,-10
938.00,-9
937.00,-7
936.00,-5
935.00,-4
934.00,-5
933.00,-7
932.00,-9
931.00,-10
930.00,-10
929.00,-9
928.00,-8
927.00,-7
926.00,-5
925.00,-4
924.00,-3
923.00,-2
922.00,-0
921.00,2
920.00,3
919.00,5
918.00,7
917.00,10
916.00,13
915.00,15
914.00,18
913.00,20
912.00,21
911.00,22
910.00,23
909.00,24
908.00,25
907.00,25
906.00,26
905.00,26
904.00,28
903.00,30
902.00,32
901.00,35
900.00,37
899.00,41
898.00,44
897.00,47
896.00,50
895.00,52
894.00,54
893.00,55
892.00,57
891.00,59
890.00,61
889.00,63
888.00,65
887.00,67
886.00,69
885.00,71
884.00,73
883.00,75
882.00,77
881.00,80
880.00,82
879.00,85
878.00,87
877.00,88
876.00,89
875.00,89
874.00,91
873.00,92
872.00,94
871.00,96
870.00,98
869.00,100
868.00,102
867.00,103
866.00,105
865.00,107
864.00,108
863.00,110
862.00,112
861.00,114
860.00,115
859.00,116
858.00,117
857.00,118
856.00,124
855.00,134
854.00,145
853.00,156
852.00,165
851.00,168
850.00,170
849.00,172
848.00,175
847.00,178
846.00,181
845.00,184
844.00,187
843.00,190
842.00,190
841.00,191
840.00,192
839.00,192
838.00,194
837.00,195
836.00,197
835.00,198
834.00,200
833.00,203
832.00,206
831.00,209
830.00,212
829.00,213
828.00,214
827.00,215
826.00,216
825.00,217
824.00,219
823.00,220
822.00,221
821.00,222
820.00,224
819.00,225
818.00,227
817.00,229
816.00,230
815.00,232
814.00,234
813.00,236
812.00,237
811.00,238
810.00,239
809.00,239
808.00,240
807.00,240
806.00,240
805.00,240
804.00,240
803.00,241
802.00,241
801.00,242
800.00,242
799.00,243
798.00,243
797.00,242
796.00,241
795.00,241
794.00,240
793.00,240
792.00,240
791.00,240
790.00,239
789.00,237
788.00,235
787.00,233
786.00,231
785.00,230
784.00,231
783.00,232
782.00,232
781.00,233
780.00,237
779.00,242
778.00,247
777.00,252
776.00,256
775.00,257
774.00,259
773.00,261
772.00,262
771.00,265
770.00,268
769.00,270
768.00,273
767.00,276
766.00,278
765.00,280
764.00,282
763.00,284
762.00,286
761.00,288
760.00,291
759.00,293
758.00,295
757.00,295
756.00,296
755.00,296
754.00,297
753.00,299
752.00,301
751.00,303
750.00,306
749.00,309
748.00,313
747.00,317
746.00,321
745.00,325
744.00,328
743.00,330
742.00,333
741.00,336
740.00,339
739.00,342
738.00,344
737.00,347
736.00,350
735.00,351
734.00,353
733.00,354
732.00,356
731.00,358
730.00,359
729.00,361
728.00,362
727.00,364
726.00,365
725.00,367
724.00,369
723.00,370
722.00,372
721.00,373
720.00,373
719.00,374
718.00,375
717.00,375
716.00,373
715.00,372
714.00,371
713.00,370
712.00,372
711.00,374
710.00,376
709.00,378
708.00,379
707.00,381
706.00,382
705.00,383
704.00,385
703.00,387
702.00,390
701.00,393
700.00,395
699.00,398
698.00,401
697.00,404
696.00,407
695.00,410
694.00,412
693.00,413
692.00,414
691.00,415
690.00,416
689.00,417
688.00,419
687.00,420
686.00,421
685.00,423
684.00,424
683.00,425
682.00,425
681.00,426
680.00,428
679.00,429
678.00,430
677.00,431
676.00,432
675.00,434
674.00,436
673.00,438
672.00,440
671.00,444
670.00,448
669.00,453
668.00,458
667.00,462
666.00,464
665.00,465
664.00,467
663.00,468
662.00,470
661.00,471
660.00,473
659.00,474
658.00,476
657.00,477
656.00,479
655.00,481
654.00,483
653.00,485
652.00,489
651.00,494
650.00,498
649.00,502
648.00,504
647.00,503
646.00,503
645.00,502
644.00,502
643.00,503
642.00,504
641.00,505
640.00,506
639.00,507
638.00,508
637.00,509
636.00,511
635.00,511
634.00,512
633.00,513
632.00,514
631.00,515
630.00,516
629.00,516
628.00,516
627.00,517
626.00,517
625.00,518
624.00,518
623.00,519
622.00,520
621.00,521
620.00,522
619.00,523
618.00,524
617.00,525
616.00,526
615.00,526
614.00,526
613.00,526
612.00,526
611.00,526
610.00,527
609.00,528
608.00,528
607.00,529
606.00,530
605.00,531
604.00,532
603.00,533
602.00,534
601.00,535
600.00,536
599.00,537
598.00,538
597.00,539
596.00,539
595.00,540
594.00,541
593.00,541
592.00,542
591.00,544
590.00,545
589.00,546
588.00,548
587.00,550
586.00,551
585.00,553
584.00,555
583.00,557
582.00,558
581.00,560
580.00,562
579.00,564
578.00,565
577.00,566
576.00,567
575.00,568
574.00,569
573.00,570
572.00,571
571.00,572
570.00,573
569.00,574
568.00,575
567.00,576
566.00,576
565.00,577
564.00,578
563.00,579
562.00,580
561.00,581
560.00,582
559.00,582
558.00,582
557.00,582
556.00,582
555.00,581
554.00,583
553.00,585
552.00,587
551.00,588
550.00,590
549.00,589
548.00,588
547.00,587
546.00,586
545.00,587
544.00,588
543.00,590
542.00,591
541.00,593
540.00,594
539.00,594
538.00,595
537.00,595
536.00,595
535.00,596
534.00,597
533.00,597
532.00,598
531.00,598
530.00,598
529.00,598
528.00,598
527.00,598
526.00,598
525.00,599
524.00,599
523.00,600
522.00,601
521.00,602
520.00,602
519.00,603
518.00,603
517.00,604
516.00,605
515.00,607
514.00,609
513.00,611
512.00,613
511.00,613
510.00,613
509.00,613
508.00,612
507.00,612
506.00,612
505.00,613
504.00,613
503.00,613
502.00,614
501.00,614
500.00,615
499.00,616
498.00,617
497.00,617
496.00,617
495.00,617
494.00,617
493.00,617
492.00,616
491.00,616
490.00,615
489.00,614
488.00,613
487.00,615
486.00,617
485.00,619
484.00,621
483.00,623
482.00,623
481.00,623
480.00,623
479.00,624
478.00,624
477.00,625
476.00,625
475.00,626
474.00,627
473.00,627
472.00,627
471.00,626
470.00,626
469.00,626
468.00,626
467.00,627
466.00,628
465.00,629
464.00,630
463.00,630
462.00,630
461.00,631
460.00,631
459.00,631
458.00,631
457.00,631
456.00,632
455.00,632
454.00,632
453.00,631
452.00,630
451.00,629
450.00,628
449.00,627
448.00,627
447.00,627
446.00,627
445.00,627
444.00,627
443.00,627
442.00,627
441.00,627
440.00,627
439.00,627
438.00,627
437.00,627
436.00,627
435.00,627
434.00,627
433.00,628
432.00,628
431.00,628
430.00,628
429.00,629
428.00,629
427.00,629
426.00,630
425.00,630
424.00,630
423.00,630
422.00,630
421.00,631
420.00,631
419.00,630
418.00,630
417.00,629
416.00,629
415.00,628
414.00,628
413.00,627
412.00,627
411.00,627
410.00,626
409.00,626
408.00,625
407.00,625
406.00,624
405.00,624
404.00,624
403.00,625
402.00,625
401.00,625
400.00,624
399.00,621
398.00,619
397.00,616
396.00,613
395.00,612
394.00,614
393.00,616
392.00,618
391.00,620
390.00,621
389.00,620
388.00,619
387.00,618
386.00,617
385.00,617
384.00,616
383.00,616
382.00,615
381.00,615
380.00,613
379.00,611
378.00,608
377.00,606
376.00,604
375.00,603
374.00,604
373.00,604
372.00,604
371.00,605
370.00,603
369.00,600
368.00,597
367.00,594
366.00,592
365.00,591
364.00,592
363.00,592
362.00,592
361.00,592
360.00,591
359.00,589
358.00,588
357.00,586
356.00,584
355.00,583
354.00,583
353.00,582
352.00,581
351.00,580
350.00,578
349.00,576
348.00,574
347.00,572
346.00,570
345.00,569
344.00,567
343.00,566
342.00,565
341.00,563
340.00,561
339.00,559
338.00,557
337.00,555
336.00,553
335.00,552
334.00,552
333.00,551
332.00,550
331.00,549
330.00,548
329.00,547
328.00,545
327.00,544
326.00,542
325.00,540
324.00,538
323.00,536
322.00,534
321.00,532
320.00,530
319.00,528
318.00,527
317.00,525
316.00,523
315.00,520
314.00,518
313.00,515
312.00,512
311.00,509
310.00,506
309.00,503
308.00,500
307.00,498
306.00,495
305.00,493
304.00,491
303.00,489
302.00,487
301.00,485
300.00,484
299.00,482
298.00,480
297.00,478
296.00,477
295.00,475
294.00,473
293.00,471
292.00,469
291.00,467
290.00,463
289.00,457
288.00,452
287.00,447
286.00,441
285.00,439
284.00,437
283.00,435
282.00,432
281.00,430
280.00,428
279.00,426
278.00,423
277.00,421
276.00,419
275.00,416
274.00,414
273.00,411
272.00,409
271.00,406
270.00,404
269.00,402
268.00,400
267.00,398
266.00,396
265.00,395
264.00,395
263.00,394
262.00,394
261.00,394
260.00,392
259.00,390
258.00,388
257.00,386
256.00,384
255.00,381
254.00,378
253.00,374
252.00,371
251.00,367
250.00,364
249.00,362
248.00,359
247.00,357
246.00,354
245.00,352
244.00,348
243.00,345
242.00,341
241.00,337
240.00,334
239.00,332
238.00,329
237.00,327
236.00,325
235.00,322
234.00,318
233.00,313
232.00,309
231.00,305
230.00,301
229.00,297
228.00,293
227.00,290
226.00,286
225.00,283
224.00,280
223.00,278
222.00,275
221.00,272
220.00,270
219.00,268
218.00,267
217.00,266
216.00,265
215.00,264
214.00,260
213.00,256
212.00,252
211.00,247
210.00,243
209.00,240
208.00,237
207.00,234
206.00,231
205.00,228
204.00,225
203.00,221
202.00,218
201.00,214
200.00,210
199.00,205
198.00,199
197.00,193
196.00,187
195.00,181
194.00,175
193.00,170
192.00,165
191.00,160
190.00,156
189.00,151
188.00,147
187.00,144
186.00,141
185.00,138
184.00,134
183.00,130
182.00,125
181.00,121
180.00,117
179.00,112
178.00,108
177.00,104
176.00,101
175.00,97
174.00,93
173.00,89
172.00,85
171.00,81
170.00,77
169.00,73
168.00,70
167.00,66
166.00,62
165.00,59
164.00,55
163.00,52
162.00,49
161.00,46
160.00,44
159.00,41
158.00,38
157.00,34
156.00,31
155.00,28
154.00,24
153.00,21
152.00,17
151.00,13
150.00,10
149.00,6
148.00,2
147.00,-1
146.00,-3
145.00,-5
144.00,-7
143.00,-10
142.00,-12
141.00,-15
140.00,-18
139.00,-21
138.00,-24
137.00,-27
136.00,-27
135.00,-27
134.00,-27
133.00,-27
132.00,-27
131.00,-31
130.00,-34
129.00,-38
128.00,-41
127.00,-45
126.00,-46
125.00,-47
124.00,-48
123.00,-49
122.00,-50
121.00,-49
120.00,-46
119.00,-42
118.00,-39
117.00,-36
116.00,-34
115.00,-34
114.00,-33
113.00,-32
112.00,-32
111.00,-31
110.00,-26
109.00,-21
108.00,-16
107.00,-12
106.00,-8
105.00,-11
104.00,-16
103.00,-21
102.00,-26
101.00,-32
100.00,-38
