Created as New Dataset,
Raman Shift / cm-1,INT
3200.00,74
3199.00,60
3198.00,14
3197.00,19
3196.00,63
3195.00,73
3194.00,73
3193.00,73
3192.00,55
3191.00,13
3190.00,57
3189.00,145
3188.00,232
3187.00,293
3186.00,293
3185.00,289
3184.00,281
3183.00,220
3182.00,150
3181.00,142
3180.00,118
3179.00,38
3178.00,2
3177.00,6
3176.00,67
3175.00,133
3174.00,140
3173.00,140
3172.00,140
3171.00,182
3170.00,253
3169.00,270
3168.00,263
3167.00,228
3166.00,201
3165.00,200
3164.00,198
3163.00,196
3162.00,168
3161.00,132
3160.00,97
3159.00,71
3158.00,70
3157.00,70
3156.00,70
3155.00,70
3154.00,67
3153.00,40
3152.00,7
3151.00,-25
3150.00,-44
3149.00,-45
3148.00,28
3147.00,146
3146.00,107
3145.00,74
3144.00,414
3143.00,650
3142.00,432
3141.00,210
3140.00,27
3139.00,-130
3138.00,-256
3137.00,-175
3136.00,-47
3135.00,-6
3134.00,23
3133.00,51
3132.00,67
3131.00,67
3130.00,67
3129.00,67
3128.00,67
3127.00,67
3126.00,67
3125.00,60
3124.00,35
3123.00,48
3122.00,125
3121.00,133
3120.00,82
3119.00,66
3118.00,60
3117.00,-2
3116.00,-57
3115.00,-18
3114.00,12
3113.00,-11
3112.00,-25
3111.00,-25
3110.00,-27
3109.00,-31
3108.00,-30
3107.00,-29
3106.00,-47
3105.00,-61
3104.00,-40
3103.00,-22
3102.00,-21
3101.00,-12
3100.00,11
3099.00,22
3098.00,23
3097.00,37
3096.00,58
3095.00,64
3094.00,71
3093.00,127
3092.00,175
3091.00,160
3090.00,126
3089.00,62
3088.00,24
3087.00,23
3086.00,24
3085.00,24
3084.00,24
3083.00,24
3082.00,40
3081.00,57
3080.00,44
3079.00,20
3078.00,-17
3077.00,-48
3076.00,-50
3075.00,-44
3074.00,-24
3073.00,-12
3072.00,-12
3071.00,8
3070.00,47
3069.00,73
3068.00,91
3067.00,82
3066.00,64
3065.00,60
3064.00,54
3063.00,7
3062.00,-36
3061.00,-25
3060.00,-14
3059.00,-30
3058.00,-42
3057.00,-43
3056.00,-36
3055.00,-18
3054.00,16
3053.00,68
3052.00,83
3051.00,65
3050.00,69
3049.00,86
3048.00,91
3047.00,91
3046.00,90
3045.00,89
3044.00,75
3043.00,62
3042.00,73
3041.00,92
3040.00,122
3039.00,145
3038.00,132
3037.00,123
3036.00,137
3035.00,139
3034.00,108
3033.00,82
3032.00,66
3031.00,45
3030.00,15
3029.00,11
3028.00,41
3027.00,64
3026.00,78
3025.00,93
3024.00,108
3023.00,222
3022.00,391
3021.00,386
3020.00,286
3019.00,252
3018.00,255
3017.00,358
3016.00,487
3015.00,455
3014.00,373
3013.00,342
3012.00,322
3011.00,262
3010.00,199
3009.00,187
3008.00,187
3007.00,186
3006.00,186
3005.00,185
3004.00,182
3003.00,170
3002.00,162
3001.00,183
3000.00,204
2999.00,206
2998.00,201
2997.00,177
2996.00,162
2995.00,194
2994.00,219
2993.00,198
2992.00,182
2991.00,202
2990.00,220
2989.00,221
2988.00,218
2987.00,206
2986.00,191
2985.00,168
2984.00,148
2983.00,146
2982.00,143
2981.00,132
2980.00,122
2979.00,121
2978.00,120
2977.00,120
2976.00,128
2975.00,171
2974.00,212
2973.00,236
2972.00,256
2971.00,267
2970.00,275
2969.00,275
2968.00,274
2967.00,273
2966.00,272
2965.00,271
2964.00,270
2963.00,269
2962.00,269
2961.00,277
2960.00,285
2959.00,285
2958.00,285
2957.00,283
2956.00,283
2955.00,290
2954.00,298
2953.00,299
2952.00,298
2951.00,296
2950.00,295
2949.00,293
2948.00,292
2947.00,276
2946.00,255
2945.00,255
2944.00,264
2943.00,267
2942.00,266
2941.00,265
2940.00,264
2939.00,263
2938.00,261
2937.00,269
2936.00,288
2935.00,275
2934.00,227
2933.00,198
2932.00,197
2931.00,199
2930.00,208
2929.00,222
2928.00,247
2927.00,266
2926.00,267
2925.00,268
2924.00,275
2923.00,281
2922.00,280
2921.00,279
2920.00,277
2919.00,275
2918.00,267
2917.00,258
2916.00,248
2915.00,239
2914.00,212
2913.00,178
2912.00,160
2911.00,151
2910.00,161
2909.00,185
2908.00,190
2907.00,172
2906.00,161
2905.00,160
2904.00,160
2903.00,159
2902.00,158
2901.00,158
2900.00,157
2899.00,156
2898.00,158
2897.00,178
2896.00,198
2895.00,203
2894.00,202
2893.00,196
2892.00,188
2891.00,189
2890.00,197
2889.00,200
2888.00,198
2887.00,186
2886.00,156
2885.00,134
2884.00,133
2883.00,126
2882.00,98
2881.00,76
2880.00,92
2879.00,111
2878.00,115
2877.00,115
2876.00,141
2875.00,175
2874.00,183
2873.00,175
2872.00,171
2871.00,171
2870.00,170
2869.00,170
2868.00,165
2867.00,152
2866.00,139
2865.00,131
2864.00,124
2863.00,117
2862.00,110
2861.00,113
2860.00,119
2859.00,117
2858.00,110
2857.00,106
2856.00,105
2855.00,103
2854.00,96
2853.00,91
2852.00,90
2851.00,92
2850.00,108
2849.00,126
2848.00,125
2847.00,118
2846.00,103
2845.00,84
2844.00,86
2843.00,110
2842.00,118
2841.00,94
2840.00,72
2839.00,59
2838.00,49
2837.00,57
2836.00,68
2835.00,62
2834.00,50
2833.00,38
2832.00,26
2831.00,22
2830.00,28
2829.00,32
2828.00,32
2827.00,31
2826.00,26
2825.00,21
2824.00,33
2823.00,50
2822.00,70
2821.00,92
2820.00,92
2819.00,64
2818.00,50
2817.00,69
2816.00,89
2815.00,101
2814.00,111
2813.00,105
2812.00,94
2811.00,83
2810.00,72
2809.00,67
2808.00,72
2807.00,71
2806.00,51
2805.00,32
2804.00,29
2803.00,28
2802.00,21
2801.00,11
2800.00,8
2799.00,13
2798.00,20
2797.00,30
2796.00,41
2795.00,60
2794.00,78
2793.00,79
2792.00,74
2791.00,71
2790.00,71
2789.00,73
2788.00,77
2787.00,82
2786.00,86
2785.00,91
2784.00,95
2783.00,100
2782.00,95
2781.00,85
2780.00,79
2779.00,79
2778.00,79
2777.00,78
2776.00,77
2775.00,62
2774.00,43
2773.00,35
2772.00,35
2771.00,38
2770.00,47
2769.00,54
2768.00,55
2767.00,55
2766.00,58
2765.00,62
2764.00,64
2763.00,64
2762.00,62
2761.00,58
2760.00,52
2759.00,40
2758.00,27
2757.00,32
2756.00,45
2755.00,46
2754.00,33
2753.00,23
2752.00,22
2751.00,21
2750.00,10
2749.00,-2
2748.00,0
2747.00,13
2746.00,23
2745.00,27
2744.00,26
2743.00,1
2742.00,-26
2741.00,-21
2740.00,-0
2739.00,23
2738.00,52
2737.00,68
2736.00,44
2735.00,15
2734.00,-29
2733.00,-77
2732.00,-74
2731.00,-27
2730.00,8
2729.00,10
2728.00,10
2727.00,10
2726.00,10
2725.00,16
2724.00,28
2723.00,37
2722.00,41
2721.00,45
2720.00,51
2719.00,59
2718.00,62
2717.00,61
2716.00,61
2715.00,61
2714.00,59
2713.00,49
2712.00,39
2711.00,34
2710.00,34
2709.00,34
2708.00,33
2707.00,34
2706.00,40
2705.00,47
2704.00,50
2703.00,49
2702.00,52
2701.00,63
2700.00,72
2699.00,70
2698.00,66
2697.00,66
2696.00,70
2695.00,71
2694.00,67
2693.00,64
2692.00,63
2691.00,63
2690.00,62
2689.00,62
2688.00,61
2687.00,58
2686.00,54
2685.00,51
2684.00,47
2683.00,45
2682.00,45
2681.00,44
2680.00,44
2679.00,44
2678.00,37
2677.00,27
2676.00,19
2675.00,16
2674.00,13
2673.00,15
2672.00,18
2671.00,19
2670.00,19
2669.00,20
2668.00,23
2667.00,26
2666.00,29
2665.00,32
2664.00,35
2663.00,38
2662.00,42
2661.00,50
2660.00,59
2659.00,67
2658.00,75
2657.00,80
2656.00,78
2655.00,75
2654.00,60
2653.00,41
2652.00,31
2651.00,31
2650.00,31
2649.00,34
2648.00,36
2647.00,35
2646.00,32
2645.00,29
2644.00,26
2643.00,23
2642.00,27
2641.00,33
2640.00,32
2639.00,23
2638.00,16
2637.00,14
2636.00,14
2635.00,16
2634.00,18
2633.00,21
2632.00,24
2631.00,26
2630.00,27
2629.00,27
2628.00,30
2627.00,40
2626.00,50
2625.00,43
2624.00,32
2623.00,27
2622.00,29
2621.00,31
2620.00,24
2619.00,16
2618.00,12
2617.00,12
2616.00,12
2615.00,17
2614.00,22
2613.00,27
2612.00,32
2611.00,38
2610.00,46
2609.00,53
2608.00,55
2607.00,55
2606.00,55
2605.00,57
2604.00,59
2603.00,58
2602.00,55
2601.00,49
2600.00,39
2599.00,29
2598.00,27
2597.00,27
2596.00,28
2595.00,30
2594.00,31
2593.00,23
2592.00,13
2591.00,8
2590.00,8
2589.00,8
2588.00,10
2587.00,12
2586.00,9
2585.00,2
2584.00,-4
2583.00,-5
2582.00,-5
2581.00,8
2580.00,32
2579.00,49
2578.00,37
2577.00,23
2576.00,13
2575.00,6
2574.00,4
2573.00,22
2572.00,43
2571.00,51
2570.00,51
2569.00,48
2568.00,33
2567.00,17
2566.00,14
2565.00,21
2564.00,26
2563.00,26
2562.00,26
2561.00,22
2560.00,15
2559.00,9
2558.00,6
2557.00,4
2556.00,10
2555.00,23
2554.00,34
2553.00,31
2552.00,26
2551.00,24
2550.00,24
2549.00,24
2548.00,24
2547.00,23
2546.00,23
2545.00,23
2544.00,23
2543.00,23
2542.00,22
2541.00,22
2540.00,22
2539.00,22
2538.00,25
2537.00,29
2536.00,33
2535.00,34
2534.00,36
2533.00,35
2532.00,32
2531.00,34
2530.00,44
2529.00,53
2528.00,56
2527.00,56
2526.00,55
2525.00,53
2524.00,51
2523.00,41
2522.00,27
2521.00,15
2520.00,13
2519.00,13
2518.00,13
2517.00,13
2516.00,13
2515.00,12
2514.00,12
2513.00,12
2512.00,12
2511.00,12
2510.00,12
2509.00,11
2508.00,13
2507.00,18
2506.00,24
2505.00,25
2504.00,25
2503.00,25
2502.00,27
2501.00,29
2500.00,29
2499.00,29
2498.00,29
2497.00,29
2496.00,28
2495.00,28
2494.00,28
2493.00,28
2492.00,26
2491.00,24
2490.00,22
2489.00,18
2488.00,14
2487.00,17
2486.00,24
2485.00,30
2484.00,32
2483.00,34
2482.00,33
2481.00,30
2480.00,26
2479.00,32
2478.00,41
2477.00,46
2476.00,41
2475.00,35
2474.00,29
2473.00,22
2472.00,15
2471.00,13
2470.00,11
2469.00,9
2468.00,9
2467.00,9
2466.00,8
2465.00,6
2464.00,4
2463.00,4
2462.00,4
2461.00,5
2460.00,6
2459.00,8
2458.00,11
2457.00,14
2456.00,16
2455.00,14
2454.00,12
2453.00,12
2452.00,14
2451.00,15
2450.00,15
2449.00,15
2448.00,15
2447.00,17
2446.00,18
2445.00,18
2444.00,18
2443.00,18
2442.00,14
2441.00,11
2440.00,10
2439.00,13
2438.00,16
2437.00,17
2436.00,17
2435.00,16
2434.00,16
2433.00,16
2432.00,14
2431.00,9
2430.00,4
2429.00,3
2428.00,3
2427.00,2
2426.00,1
2425.00,-1
2424.00,-2
2423.00,-2
2422.00,-2
2421.00,-2
2420.00,-2
2419.00,-3
2418.00,-3
2417.00,-3
2416.00,0
2415.00,8
2414.00,15
2413.00,29
2412.00,45
2411.00,55
2410.00,36
2409.00,14
2408.00,-1
2407.00,-4
2406.00,-7
2405.00,3
2404.00,19
2403.00,31
2402.00,22
2401.00,8
2400.00,-1
2399.00,-1
2398.00,-1
2397.00,5
2396.00,15
2395.00,24
2394.00,25
2393.00,25
2392.00,24
2391.00,19
2390.00,15
2389.00,12
2388.00,10
2387.00,9
2386.00,11
2385.00,13
2384.00,15
2383.00,14
2382.00,12
2381.00,13
2380.00,19
2379.00,24
2378.00,26
2377.00,25
2376.00,25
2375.00,25
2374.00,25
2373.00,25
2372.00,24
2371.00,24
2370.00,24
2369.00,24
2368.00,24
2367.00,23
2366.00,23
2365.00,22
2364.00,16
2363.00,9
2362.00,7
2361.00,13
2360.00,19
2359.00,24
2358.00,28
2357.00,31
2356.00,23
2355.00,11
2354.00,0
2353.00,-2
2352.00,-4
2351.00,-3
2350.00,4
2349.00,10
2348.00,12
2347.00,11
2346.00,9
2345.00,9
2344.00,9
2343.00,9
2342.00,9
2341.00,11
2340.00,11
2339.00,11
2338.00,11
2337.00,11
2336.00,11
2335.00,10
2334.00,9
2333.00,8
2332.00,7
2331.00,8
2330.00,9
2329.00,9
2328.00,9
2327.00,9
2326.00,9
2325.00,9
2324.00,9
2323.00,9
2322.00,8
2321.00,8
2320.00,7
2319.00,6
2318.00,5
2317.00,4
2316.00,4
2315.00,4
2314.00,2
2313.00,1
2312.00,1
2311.00,2
2310.00,3
2309.00,2
2308.00,1
2307.00,-0
2306.00,0
2305.00,1
2304.00,3
2303.00,5
2302.00,7
2301.00,10
2300.00,15
2299.00,19
2298.00,22
2297.00,22
2296.00,22
2295.00,22
2294.00,23
2293.00,24
2292.00,23
2291.00,22
2290.00,21
2289.00,19
2288.00,18
2287.00,17
2286.00,15
2285.00,14
2284.00,11
2283.00,5
2282.00,-1
2281.00,-5
2280.00,-6
2279.00,-7
2278.00,-7
2277.00,-6
2276.00,-5
2275.00,-6
2274.00,-7
2273.00,-8
2272.00,-7
2271.00,-6
2270.00,-5
2269.00,-6
2268.00,-6
2267.00,-5
2266.00,-4
2265.00,-3
2264.00,-1
2263.00,4
2262.00,8
2261.00,10
2260.00,10
2259.00,10
2258.00,10
2257.00,11
2256.00,12
2255.00,12
2254.00,12
2253.00,12
2252.00,12
2251.00,11
2250.00,11
2249.00,8
2248.00,6
2247.00,5
2246.00,6
2245.00,7
2244.00,8
2243.00,9
2242.00,9
2241.00,6
2240.00,-1
2239.00,-7
2238.00,-4
2237.00,2
2236.00,8
2235.00,8
2234.00,7
2233.00,6
2232.00,5
2231.00,3
2230.00,3
2229.00,6
2228.00,9
2227.00,14
2226.00,24
2225.00,35
2224.00,41
2223.00,36
2222.00,32
2221.00,28
2220.00,26
2219.00,24
2218.00,25
2217.00,29
2216.00,33
2215.00,27
2214.00,16
2213.00,4
2212.00,-1
2211.00,-2
2210.00,-3
2209.00,-2
2208.00,-2
2207.00,-1
2206.00,-2
2205.00,-3
2204.00,-4
2203.00,-4
2202.00,-4
2201.00,-5
2200.00,-7
2199.00,-9
2198.00,-11
2197.00,-11
2196.00,-11
2195.00,-11
2194.00,-10
2193.00,-9
2192.00,-8
2191.00,-7
2190.00,-6
2189.00,-5
2188.00,-5
2187.00,-4
2186.00,-3
2185.00,-5
2184.00,-6
2183.00,-6
2182.00,-7
2181.00,-7
2180.00,-6
2179.00,-5
2178.00,-5
2177.00,-5
2176.00,-8
2175.00,-10
2174.00,-10
2173.00,-9
2172.00,-8
2171.00,-7
2170.00,-6
2169.00,-5
2168.00,-5
2167.00,-5
2166.00,-5
2165.00,-6
2164.00,-7
2163.00,-8
2162.00,-7
2161.00,-4
2160.00,-1
2159.00,-1
2158.00,-2
2157.00,-4
2156.00,-5
2155.00,-6
2154.00,-7
2153.00,-10
2152.00,-13
2151.00,-16
2150.00,-16
2149.00,-16
2148.00,-17
2147.00,-17
2146.00,-17
2145.00,-17
2144.00,-17
2143.00,-17
2142.00,-17
2141.00,-15
2140.00,-14
2139.00,-12
2138.00,-12
2137.00,-12
2136.00,-12
2135.00,-10
2134.00,-7
2133.00,-5
2132.00,-5
2131.00,-6
2130.00,-7
2129.00,-8
2128.00,-8
2127.00,-9
2126.00,-12
2125.00,-16
2124.00,-19
2123.00,-15
2122.00,-11
2121.00,-7
2120.00,-6
2119.00,-5
2118.00,-5
2117.00,-3
2116.00,-1
2115.00,-0
2114.00,-0
2113.00,-0
2112.00,-0
2111.00,0
2110.00,1
2109.00,1
2108.00,3
2107.00,4
2106.00,5
2105.00,5
2104.00,3
2103.00,2
2102.00,2
2101.00,2
2100.00,1
2099.00,1
2098.00,1
2097.00,0
2096.00,-0
2095.00,-0
2094.00,-1
2093.00,-1
2092.00,-1
2091.00,-2
2090.00,-1
2089.00,-1
2088.00,-0
2087.00,-0
2086.00,-1
2085.00,-1
2084.00,-2
2083.00,-4
2082.00,-6
2081.00,-6
2080.00,-4
2079.00,-2
2078.00,-3
2077.00,-7
2076.00,-11
2075.00,-12
2074.00,-8
2073.00,-5
2072.00,-3
2071.00,-2
2070.00,-2
2069.00,-2
2068.00,-1
2067.00,-1
2066.00,-1
2065.00,-3
2064.00,-4
2063.00,-6
2062.00,-5
2061.00,-5
2060.00,-5
2059.00,-6
2058.00,-7
2057.00,-8
2056.00,-9
2055.00,-10
2054.00,-11
2053.00,-12
2052.00,-13
2051.00,-13
2050.00,-11
2049.00,-8
2048.00,-5
2047.00,-4
2046.00,-5
2045.00,-5
2044.00,-5
2043.00,-6
2042.00,-6
2041.00,-5
2040.00,-3
2039.00,-0
2038.00,2
2037.00,3
2036.00,5
2035.00,6
2034.00,8
2033.00,11
2032.00,10
2031.00,4
2030.00,-2
2029.00,-6
2028.00,-0
2027.00,6
2026.00,11
2025.00,7
2024.00,3
2023.00,-1
2022.00,-6
2021.00,-10
2020.00,-14
2019.00,-12
2018.00,-8
2017.00,-5
2016.00,-3
2015.00,-4
2014.00,-4
2013.00,-4
2012.00,-5
2011.00,-6
2010.00,-6
2009.00,-4
2008.00,-3
2007.00,-2
2006.00,-2
2005.00,-2
2004.00,-2
2003.00,0
2002.00,2
2001.00,3
2000.00,2
1999.00,-1
1998.00,-3
1997.00,-4
1996.00,-4
1995.00,-4
1994.00,-2
1993.00,1
1992.00,4
1991.00,4
1990.00,2
1989.00,1
1988.00,-0
1987.00,-0
1986.00,0
1985.00,0
1984.00,-1
1983.00,-2
1982.00,-3
1981.00,-4
1980.00,-5
1979.00,-6
1978.00,-6
1977.00,-6
1976.00,-6
1975.00,-3
1974.00,1
1973.00,4
1972.00,9
1971.00,14
1970.00,18
1969.00,21
1968.00,20
1967.00,20
1966.00,19
1965.00,18
1964.00,18
1963.00,17
1962.00,15
1961.00,12
1960.00,10
1959.00,11
1958.00,14
1957.00,16
1956.00,17
1955.00,17
1954.00,17
1953.00,17
1952.00,18
1951.00,18
1950.00,18
1949.00,18
1948.00,18
1947.00,18
1946.00,18
1945.00,18
1944.00,18
1943.00,18
1942.00,17
1941.00,17
1940.00,16
1939.00,16
1938.00,16
1937.00,16
1936.00,15
1935.00,15
1934.00,15
1933.00,16
1932.00,18
1931.00,19
1930.00,20
1929.00,20
1928.00,21
1927.00,23
1926.00,25
1925.00,26
1924.00,27
1923.00,27
1922.00,27
1921.00,27
1920.00,26
1919.00,26
1918.00,26
1917.00,26
1916.00,25
1915.00,25
1914.00,25
1913.00,24
1912.00,24
1911.00,22
1910.00,18
1909.00,14
1908.00,12
1907.00,16
1906.00,19
1905.00,23
1904.00,23
1903.00,24
1902.00,25
1901.00,25
1900.00,25
1899.00,26
1898.00,26
1897.00,27
1896.00,27
1895.00,28
1894.00,29
1893.00,31
1892.00,32
1891.00,32
1890.00,32
1889.00,31
1888.00,32
1887.00,32
1886.00,32
1885.00,33
1884.00,33
1883.00,34
1882.00,34
1881.00,33
1880.00,32
1879.00,31
1878.00,30
1877.00,29
1876.00,28
1875.00,29
1874.00,31
1873.00,33
1872.00,33
1871.00,31
1870.00,30
1869.00,29
1868.00,30
1867.00,31
1866.00,33
1865.00,33
1864.00,34
1863.00,35
1862.00,35
1861.00,34
1860.00,34
1859.00,34
1858.00,34
1857.00,34
1856.00,33
1855.00,34
1854.00,35
1853.00,36
1852.00,36
1851.00,36
1850.00,36
1849.00,35
1848.00,35
1847.00,35
1846.00,35
1845.00,34
1844.00,34
1843.00,33
1842.00,33
1841.00,34
1840.00,34
1839.00,34
1838.00,34
1837.00,34
1836.00,35
1835.00,35
1834.00,35
1833.00,35
1832.00,36
1831.00,36
1830.00,37
1829.00,37
1828.00,38
1827.00,39
1826.00,39
1825.00,39
1824.00,39
1823.00,40
1822.00,39
1821.00,38
1820.00,37
1819.00,37
1818.00,38
1817.00,38
1816.00,39
1815.00,40
1814.00,40
1813.00,41
1812.00,37
1811.00,31
1810.00,25
1809.00,22
1808.00,23
1807.00,25
1806.00,27
1805.00,29
1804.00,32
1803.00,34
1802.00,35
1801.00,34
1800.00,33
1799.00,32
1798.00,29
1797.00,26
1796.00,22
1795.00,22
1794.00,22
1793.00,21
1792.00,21
1791.00,21
1790.00,20
1789.00,20
1788.00,20
1787.00,20
1786.00,20
1785.00,20
1784.00,20
1783.00,21
1782.00,22
1781.00,26
1780.00,29
1779.00,33
1778.00,34
1777.00,34
1776.00,35
1775.00,35
1774.00,35
1773.00,35
1772.00,35
1771.00,35
1770.00,36
1769.00,36
1768.00,35
1767.00,35
1766.00,35
1765.00,34
1764.00,34
1763.00,33
1762.00,33
1761.00,33
1760.00,33
1759.00,33
1758.00,33
1757.00,33
1756.00,33
1755.00,33
1754.00,33
1753.00,33
1752.00,33
1751.00,33
1750.00,33
1749.00,34
1748.00,34
1747.00,34
1746.00,34
1745.00,34
1744.00,35
1743.00,35
1742.00,36
1741.00,36
1740.00,36
1739.00,37
1738.00,37
1737.00,39
1736.00,41
1735.00,44
1734.00,46
1733.00,48
1732.00,50
1731.00,52
1730.00,52
1729.00,52
1728.00,51
1727.00,53
1726.00,55
1725.00,57
1724.00,58
1723.00,58
1722.00,58
1721.00,58
1720.00,58
1719.00,58
1718.00,57
1717.00,57
1716.00,58
1715.00,59
1714.00,59
1713.00,60
1712.00,60
1711.00,60
1710.00,60
1709.00,60
1708.00,60
1707.00,59
1706.00,59
1705.00,58
1704.00,57
1703.00,56
1702.00,56
1701.00,55
1700.00,55
1699.00,56
1698.00,57
1697.00,57
1696.00,57
1695.00,56
1694.00,55
1693.00,54
1692.00,55
1691.00,56
1690.00,57
1689.00,57
1688.00,56
1687.00,55
1686.00,54
1685.00,52
1684.00,51
1683.00,49
1682.00,48
1681.00,48
1680.00,47
1679.00,47
1678.00,47
1677.00,47
1676.00,47
1675.00,46
1674.00,46
1673.00,46
1672.00,45
1671.00,45
1670.00,45
1669.00,45
1668.00,45
1667.00,45
1666.00,45
1665.00,46
1664.00,48
1663.00,50
1662.00,53
1661.00,54
1660.00,53
1659.00,53
1658.00,53
1657.00,54
1656.00,55
1655.00,57
1654.00,58
1653.00,59
1652.00,61
1651.00,62
1650.00,62
1649.00,61
1648.00,61
1647.00,61
1646.00,61
1645.00,61
1644.00,61
1643.00,62
1642.00,64
1641.00,66
1640.00,68
1639.00,67
1638.00,67
1637.00,66
1636.00,66
1635.00,66
1634.00,66
1633.00,65
1632.00,65
1631.00,64
1630.00,63
1629.00,63
1628.00,62
1627.00,62
1626.00,61
1625.00,61
1624.00,61
1623.00,60
1622.00,60
1621.00,59
1620.00,58
1619.00,58
1618.00,57
1617.00,57
1616.00,56
1615.00,56
1614.00,56
1613.00,57
1612.00,57
1611.00,57
1610.00,57
1609.00,57
1608.00,58
1607.00,57
1606.00,57
1605.00,57
1604.00,58
1603.00,59
1602.00,59
1601.00,60
1600.00,62
1599.00,63
1598.00,64
1597.00,64
1596.00,63
1595.00,63
1594.00,62
1593.00,59
1592.00,56
1591.00,54
1590.00,53
1589.00,57
1588.00,60
1587.00,64
1586.00,64
1585.00,61
1584.00,59
1583.00,57
1582.00,54
1581.00,51
1580.00,48
1579.00,48
1578.00,53
1577.00,57
1576.00,61
1575.00,64
1574.00,66
1573.00,68
1572.00,69
1571.00,69
1570.00,70
1569.00,70
1568.00,70
1567.00,69
1566.00,68
1565.00,68
1564.00,68
1563.00,68
1562.00,68
1561.00,68
1560.00,68
1559.00,68
1558.00,67
1557.00,67
1556.00,66
1555.00,65
1554.00,65
1553.00,65
1552.00,66
1551.00,66
1550.00,66
1549.00,65
1548.00,65
1547.00,65
1546.00,65
1545.00,64
1544.00,64
1543.00,63
1542.00,62
1541.00,61
1540.00,60
1539.00,61
1538.00,62
1537.00,63
1536.00,64
1535.00,64
1534.00,64
1533.00,63
1532.00,64
1531.00,64
1530.00,65
1529.00,66
1528.00,67
1527.00,67
1526.00,67
1525.00,67
1524.00,67
1523.00,67
1522.00,67
1521.00,67
1520.00,66
1519.00,66
1518.00,66
1517.00,66
1516.00,66
1515.00,66
1514.00,66
1513.00,66
1512.00,66
1511.00,66
1510.00,66
1509.00,70
1508.00,73
1507.00,77
1506.00,79
1505.00,81
1504.00,82
1503.00,83
1502.00,82
1501.00,81
1500.00,80
1499.00,78
1498.00,78
1497.00,78
1496.00,78
1495.00,79
1494.00,80
1493.00,80
1492.00,81
1491.00,82
1490.00,83
1489.00,83
1488.00,84
1487.00,88
1486.00,92
1485.00,96
1484.00,99
1483.00,101
1482.00,104
1481.00,106
1480.00,107
1479.00,106
1478.00,105
1477.00,105
1476.00,105
1475.00,105
1474.00,105
1473.00,105
1472.00,105
1471.00,104
1470.00,104
1469.00,104
1468.00,105
1467.00,105
1466.00,105
1465.00,107
1464.00,108
1463.00,110
1462.00,112
1461.00,115
1460.00,118
1459.00,121
1458.00,124
1457.00,127
1456.00,130
1455.00,134
1454.00,136
1453.00,137
1452.00,138
1451.00,140
1450.00,140
1449.00,139
1448.00,139
1447.00,138
1446.00,136
1445.00,134
1444.00,132
1443.00,131
1442.00,131
1441.00,130
1440.00,130
1439.00,130
1438.00,129
1437.00,128
1436.00,128
1435.00,125
1434.00,123
1433.00,120
1432.00,117
1431.00,115
1430.00,112
1429.00,110
1428.00,108
1427.00,108
1426.00,108
1425.00,108
1424.00,108
1423.00,108
1422.00,108
1421.00,108
1420.00,108
1419.00,109
1418.00,110
1417.00,110
1416.00,113
1415.00,116
1414.00,119
1413.00,122
1412.00,122
1411.00,122
1410.00,121
1409.00,121
1408.00,121
1407.00,121
1406.00,121
1405.00,121
1404.00,123
1403.00,125
1402.00,127
1401.00,128
1400.00,130
1399.00,131
1398.00,132
1397.00,132
1396.00,132
1395.00,131
1394.00,131
1393.00,129
1392.00,128
1391.00,126
1390.00,125
1389.00,124
1388.00,124
1387.00,124
1386.00,124
1385.00,124
1384.00,124
1383.00,125
1382.00,125
1381.00,124
1380.00,124
1379.00,124
1378.00,124
1377.00,124
1376.00,125
1375.00,125
1374.00,125
1373.00,125
1372.00,125
1371.00,125
1370.00,124
1369.00,124
1368.00,123
1367.00,122
1366.00,122
1365.00,121
1364.00,121
1363.00,120
1362.00,120
1361.00,119
1360.00,119
1359.00,118
1358.00,117
1357.00,117
1356.00,116
1355.00,114
1354.00,110
1353.00,107
1352.00,104
1351.00,102
1350.00,102
1349.00,101
1348.00,100
1347.00,99
1346.00,98
1345.00,97
1344.00,96
1343.00,96
1342.00,96
1341.00,96
1340.00,96
1339.00,96
1338.00,97
1337.00,98
1336.00,98
1335.00,98
1334.00,97
1333.00,97
1332.00,97
1331.00,96
1330.00,95
1329.00,95
1328.00,94
1327.00,94
1326.00,94
1325.00,94
1324.00,93
1323.00,91
1322.00,89
1321.00,87
1320.00,86
1319.00,85
1318.00,84
1317.00,84
1316.00,84
1315.00,84
1314.00,84
1313.00,84
1312.00,84
1311.00,83
1310.00,83
1309.00,82
1308.00,81
1307.00,80
1306.00,78
1305.00,77
1304.00,77
1303.00,77
1302.00,76
1301.00,76
1300.00,76
1299.00,76
1298.00,76
1297.00,76
1296.00,76
1295.00,76
1294.00,76
1293.00,75
1292.00,73
1291.00,71
1290.00,69
1289.00,68
1288.00,67
1287.00,67
1286.00,67
1285.00,67
1284.00,66
1283.00,65
1282.00,64
1281.00,63
1280.00,63
1279.00,63
1278.00,62
1277.00,60
1276.00,58
1275.00,55
1274.00,53
1273.00,51
1272.00,49
1271.00,47
1270.00,45
1269.00,45
1268.00,45
1267.00,45
1266.00,45
1265.00,45
1264.00,46
1263.00,47
1262.00,47
1261.00,47
1260.00,46
1259.00,45
1258.00,44
1257.00,44
1256.00,44
1255.00,44
1254.00,44
1253.00,44
1252.00,44
1251.00,45
1250.00,45
1249.00,45
1248.00,44
1247.00,44
1246.00,44
1245.00,44
1244.00,44
1243.00,44
1242.00,45
1241.00,45
1240.00,44
1239.00,44
1238.00,44
1237.00,43
1236.00,42
1235.00,41
1234.00,40
1233.00,38
1232.00,37
1231.00,35
1230.00,34
1229.00,35
1228.00,36
1227.00,38
1226.00,39
1225.00,38
1224.00,37
1223.00,35
1222.00,34
1221.00,34
1220.00,33
1219.00,32
1218.00,31
1217.00,32
1216.00,33
1215.00,33
1214.00,34
1213.00,34
1212.00,33
1211.00,33
1210.00,33
1209.00,32
1208.00,31
1207.00,30
1206.00,29
1205.00,30
1204.00,30
1203.00,30
1202.00,30
1201.00,30
1200.00,30
1199.00,29
1198.00,29
1197.00,28
1196.00,26
1195.00,24
1194.00,23
1193.00,22
1192.00,22
1191.00,21
1190.00,21
1189.00,21
1188.00,21
1187.00,21
1186.00,21
1185.00,21
1184.00,20
1183.00,20
1182.00,20
1181.00,19
1180.00,19
1179.00,19
1178.00,19
1177.00,19
1176.00,18
1175.00,18
1174.00,17
1173.00,16
1172.00,15
1171.00,14
1170.00,13
1169.00,13
1168.00,13
1167.00,13
1166.00,13
1165.00,13
1164.00,13
1163.00,13
1162.00,14
1161.00,14
1160.00,14
1159.00,14
1158.00,13
1157.00,14
1156.00,14
1155.00,15
1154.00,15
1153.00,16
1152.00,18
1151.00,19
1150.00,20
1149.00,21
1148.00,21
1147.00,21
1146.00,21
1145.00,21
1144.00,20
1143.00,20
1142.00,19
1141.00,19
1140.00,20
1139.00,22
1138.00,23
1137.00,24
1136.00,23
1135.00,22
1134.00,21
1133.00,21
1132.00,20
1131.00,20
1130.00,20
1129.00,19
1128.00,19
1127.00,20
1126.00,20
1125.00,20
1124.00,20
1123.00,20
1122.00,20
1121.00,20
1120.00,20
1119.00,19
1118.00,19
1117.00,19
1116.00,18
1115.00,18
1114.00,17
1113.00,17
1112.00,16
1111.00,13
1110.00,10
1109.00,8
1108.00,6
1107.00,6
1106.00,6
1105.00,6
1104.00,6
1103.00,6
1102.00,6
1101.00,5
1100.00,5
1099.00,5
1098.00,5
1097.00,5
1096.00,5
1095.00,4
1094.00,4
1093.00,4
1092.00,4
1091.00,4
1090.00,3
1089.00,2
1088.00,2
1087.00,1
1086.00,0
1085.00,-0
1084.00,-1
1083.00,-1
1082.00,-1
1081.00,-1
1080.00,-1
1079.00,-1
1078.00,-2
1077.00,-4
1076.00,-5
1075.00,-6
1074.00,-5
1073.00,-4
1072.00,-3
1071.00,-2
1070.00,-2
1069.00,-2
1068.00,-3
1067.00,-3
1066.00,-4
1065.00,-4
1064.00,-5
1063.00,-6
1062.00,-6
1061.00,-5
1060.00,-4
1059.00,-3
1058.00,-3
1057.00,-3
1056.00,-3
1055.00,-3
1054.00,-3
1053.00,-4
1052.00,-4
1051.00,-4
1050.00,-4
1049.00,-4
1048.00,-4
1047.00,-4
1046.00,-4
1045.00,-4
1044.00,-4
1043.00,-4
1042.00,-4
1041.00,-3
1040.00,-3
1039.00,-3
1038.00,-2
1037.00,-2
1036.00,-2
1035.00,-1
1034.00,-1
1033.00,-1
1032.00,-1
1031.00,-1
1030.00,-1
1029.00,-1
1028.00,-1
1027.00,-2
1026.00,-2
1025.00,-2
1024.00,-2
1023.00,-2
1022.00,-2
1021.00,-2
1020.00,-2
1019.00,-2
1018.00,-2
1017.00,-2
1016.00,-2
1015.00,-2
1014.00,-2
1013.00,-2
1012.00,-2
1011.00,-1
1010.00,-1
1009.00,0
1008.00,1
1007.00,1
1006.00,2
1005.00,3
1004.00,3
1003.00,4
1002.00,4
1001.00,4
1000.00,5
999.00,5
998.00,5
997.00,5
996.00,5
995.00,5
994.00,5
993.00,6
992.00,6
991.00,6
990.00,6
989.00,6
988.00,6
987.00,6
986.00,6
985.00,6
984.00,6
983.00,6
982.00,6
981.00,7
980.00,8
979.00,9
978.00,9
977.00,10
976.00,10
975.00,11
974.00,11
973.00,11
972.00,11
971.00,11
970.00,11
969.00,11
968.00,11
967.00,11
966.00,11
965.00,11
964.00,11
963.00,11
962.00,10
961.00,10
960.00,10
959.00,10
958.00,10
957.00,10
956.00,10
955.00,9
954.00,9
953.00,9
952.00,8
951.00,7
950.00,5
949.00,4
948.00,3
947.00,3
946.00,3
945.00,3
944.00,3
943.00,3
942.00,2
941.00,2
940.00,2
939.00,2
938.00,2
937.00,3
936.00,3
935.00,3
934.00,3
933.00,3
932.00,3
931.00,3
930.00,2
929.00,2
928.00,2
927.00,3
926.00,3
925.00,4
924.00,5
923.00,6
922.00,7
921.00,7
920.00,7
919.00,7
918.00,6
917.00,7
916.00,7
915.00,7
914.00,8
913.00,8
912.00,7
911.00,7
910.00,7
909.00,6
908.00,7
907.00,7
906.00,7
905.00,7
904.00,7
903.00,7
902.00,7
901.00,6
900.00,6
899.00,7
898.00,7
897.00,7
896.00,8
895.00,9
894.00,10
893.00,11
892.00,12
891.00,13
890.00,14
889.00,14
888.00,15
887.00,15
886.00,15
885.00,16
884.00,16
883.00,16
882.00,16
881.00,16
880.00,16
879.00,16
878.00,17
877.00,18
876.00,18
875.00,19
874.00,20
873.00,20
872.00,20
871.00,20
870.00,20
869.00,20
868.00,19
867.00,18
866.00,17
865.00,17
864.00,16
863.00,16
862.00,16
861.00,16
860.00,15
859.00,15
858.00,15
857.00,15
856.00,15
855.00,14
854.00,14
853.00,14
852.00,14
851.00,14
850.00,14
849.00,14
848.00,14
847.00,14
846.00,14
845.00,14
844.00,15
843.00,15
842.00,14
841.00,14
840.00,14
839.00,13
838.00,13
837.00,12
836.00,12
835.00,12
834.00,11
833.00,11
832.00,11
831.00,11
830.00,11
829.00,10
828.00,10
827.00,9
826.00,9
825.00,8
824.00,7
823.00,6
822.00,6
821.00,5
820.00,4
819.00,4
818.00,3
817.00,2
816.00,2
815.00,2
814.00,2
813.00,2
812.00,2
811.00,2
810.00,1
809.00,1
808.00,1
807.00,1
806.00,1
805.00,1
804.00,1
803.00,1
802.00,1
801.00,1
800.00,1
799.00,0
798.00,-0
797.00,-1
796.00,-1
795.00,-2
794.00,-2
793.00,-2
792.00,-1
791.00,-1
790.00,-1
789.00,0
788.00,1
787.00,2
786.00,3
785.00,3
784.00,1
783.00,-0
782.00,-1
781.00,-2
780.00,-2
779.00,-0
778.00,1
777.00,2
776.00,3
775.00,3
774.00,2
773.00,2
772.00,2
771.00,2
770.00,3
769.00,4
768.00,4
767.00,4
766.00,3
765.00,3
764.00,2
763.00,1
762.00,1
761.00,1
760.00,1
759.00,1
758.00,1
757.00,1
756.00,1
755.00,1
754.00,1
753.00,1
752.00,1
751.00,1
750.00,1
749.00,1
748.00,1
747.00,1
746.00,1
745.00,0
744.00,-0
743.00,-1
742.00,-2
741.00,-3
740.00,-4
739.00,-4
738.00,-4
737.00,-4
736.00,-4
735.00,-5
734.00,-6
733.00,-7
732.00,-8
731.00,-8
730.00,-8
729.00,-8
728.00,-9
727.00,-9
726.00,-8
725.00,-8
724.00,-7
723.00,-6
722.00,-6
721.00,-7
720.00,-7
719.00,-8
718.00,-9
717.00,-9
716.00,-9
715.00,-9
714.00,-10
713.00,-10
712.00,-8
711.00,-7
710.00,-6
709.00,-5
708.00,-4
707.00,-4
706.00,-4
705.00,-4
704.00,-4
703.00,-3
702.00,-3
701.00,-2
700.00,-1
699.00,-1
698.00,-1
697.00,-2
696.00,-2
695.00,-2
694.00,-2
693.00,-2
692.00,-2
691.00,-2
690.00,-2
689.00,-3
688.00,-3
687.00,-3
686.00,-3
685.00,-3
684.00,-3
683.00,-3
682.00,-2
681.00,-2
680.00,-3
679.00,-4
678.00,-5
677.00,-6
676.00,-7
675.00,-6
674.00,-5
673.00,-4
672.00,-4
671.00,-4
670.00,-4
669.00,-5
668.00,-6
667.00,-6
666.00,-6
665.00,-6
664.00,-6
663.00,-6
662.00,-6
661.00,-6
660.00,-6
659.00,-6
658.00,-6
657.00,-5
656.00,-4
655.00,-3
654.00,-2
653.00,-1
652.00,-0
651.00,-0
650.00,-0
649.00,0
648.00,0
647.00,1
646.00,1
645.00,1
644.00,1
643.00,2
642.00,2
641.00,2
640.00,2
639.00,2
638.00,2
637.00,2
636.00,2
635.00,2
634.00,2
633.00,2
632.00,2
631.00,2
630.00,2
629.00,2
628.00,3
627.00,3
626.00,3
625.00,3
624.00,4
623.00,4
622.00,5
621.00,5
620.00,5
619.00,6
618.00,6
617.00,6
616.00,6
615.00,7
614.00,8
613.00,9
612.00,10
611.00,11
610.00,12
609.00,12
608.00,13
607.00,14
606.00,15
605.00,16
604.00,17
603.00,18
602.00,18
601.00,18
600.00,18
599.00,18
598.00,18
597.00,18
596.00,19
595.00,20
594.00,20
593.00,21
592.00,21
591.00,20
590.00,19
589.00,18
588.00,17
587.00,16
586.00,15
585.00,15
584.00,14
583.00,13
582.00,13
581.00,13
580.00,13
579.00,13
578.00,13
577.00,12
576.00,12
575.00,12
574.00,12
573.00,11
572.00,11
571.00,10
570.00,10
569.00,10
568.00,9
567.00,8
566.00,8
565.00,7
564.00,7
563.00,7
562.00,8
561.00,8
560.00,9
559.00,8
558.00,8
557.00,8
556.00,7
555.00,7
554.00,7
553.00,7
552.00,7
551.00,7
550.00,7
549.00,6
548.00,6
547.00,6
546.00,5
545.00,5
544.00,5
543.00,5
542.00,5
541.00,5
540.00,5
539.00,5
538.00,5
537.00,5
536.00,5
535.00,4
534.00,4
533.00,3
532.00,3
531.00,2
530.00,2
529.00,3
528.00,3
527.00,3
526.00,3
525.00,4
524.00,4
523.00,4
522.00,4
521.00,4
520.00,4
519.00,4
518.00,4
517.00,4
516.00,4
515.00,5
514.00,5
513.00,6
512.00,7
511.00,7
510.00,7
509.00,6
508.00,6
507.00,6
506.00,7
505.00,7
504.00,7
503.00,8
502.00,8
501.00,7
500.00,7
499.00,7
498.00,7
497.00,7
496.00,8
495.00,9
494.00,10
493.00,11
492.00,12
491.00,12
490.00,13
489.00,13
488.00,14
487.00,13
486.00,13
485.00,12
484.00,12
483.00,12
482.00,11
481.00,11
480.00,11
479.00,10
478.00,10
477.00,10
476.00,10
475.00,10
474.00,10
473.00,10
472.00,11
471.00,12
470.00,13
469.00,14
468.00,14
467.00,14
466.00,14
465.00,14
464.00,14
463.00,14
462.00,14
461.00,14
460.00,14
459.00,14
458.00,14
457.00,14
456.00,14
455.00,14
454.00,14
453.00,14
452.00,14
451.00,14
450.00,14
449.00,14
448.00,14
447.00,14
446.00,14
445.00,14
444.00,14
443.00,13
442.00,13
441.00,12
440.00,12
439.00,12
438.00,12
437.00,12
436.00,12
435.00,12
434.00,13
433.00,13
432.00,13
431.00,13
430.00,13
429.00,13
428.00,12
427.00,12
426.00,12
425.00,12
424.00,12
423.00,12
422.00,11
421.00,11
420.00,11
419.00,12
418.00,13
417.00,14
416.00,15
415.00,16
414.00,16
413.00,17
412.00,17
411.00,18
410.00,19
409.00,19
408.00,19
407.00,19
406.00,19
405.00,19
404.00,18
403.00,18
402.00,18
401.00,18
400.00,17
399.00,17
398.00,17
397.00,17
396.00,17
395.00,17
394.00,17
393.00,17
392.00,17
391.00,17
390.00,17
389.00,17
388.00,17
387.00,18
386.00,18
385.00,18
384.00,19
383.00,20
382.00,20
381.00,21
380.00,21
379.00,21
378.00,20
377.00,20
376.00,20
375.00,19
374.00,19
373.00,19
372.00,19
371.00,19
370.00,18
369.00,18
368.00,18
367.00,17
366.00,17
365.00,17
364.00,16
363.00,16
362.00,16
361.00,16
360.00,16
359.00,15
358.00,15
357.00,15
356.00,14
355.00,14
354.00,14
353.00,14
352.00,14
351.00,14
350.00,13
349.00,13
348.00,13
347.00,13
346.00,13
345.00,14
344.00,15
343.00,16
342.00,17
341.00,17
340.00,18
339.00,18
338.00,18
337.00,18
336.00,18
335.00,18
334.00,18
333.00,18
332.00,19
331.00,19
330.00,19
329.00,18
328.00,18
327.00,18
326.00,18
325.00,18
324.00,17
323.00,17
322.00,17
321.00,17
320.00,16
319.00,16
318.00,16
317.00,15
316.00,15
315.00,15
314.00,15
313.00,14
312.00,14
311.00,14
310.00,14
309.00,14
308.00,14
307.00,13
306.00,13
305.00,13
304.00,13
303.00,13
302.00,13
301.00,13
300.00,14
299.00,15
298.00,17
297.00,18
296.00,19
295.00,20
294.00,20
293.00,20
292.00,21
291.00,21
290.00,21
289.00,21
288.00,20
287.00,20
286.00,20
285.00,20
284.00,19
283.00,19
282.00,19
281.00,18
280.00,18
279.00,17
278.00,17
277.00,17
276.00,16
275.00,16
274.00,16
273.00,15
272.00,15
271.00,15
270.00,15
269.00,14
268.00,14
267.00,14
266.00,14
265.00,14
264.00,14
263.00,14
262.00,13
261.00,13
260.00,14
259.00,14
258.00,14
257.00,15
256.00,15
255.00,15
254.00,15
253.00,15
252.00,15
251.00,15
250.00,15
249.00,15
248.00,15
247.00,16
246.00,16
245.00,16
244.00,16
243.00,15
242.00,15
241.00,15
240.00,15
239.00,15
238.00,15
237.00,15
236.00,14
235.00,14
234.00,14
233.00,14
232.00,14
231.00,14
230.00,14
229.00,14
228.00,13
227.00,13
226.00,13
225.00,13
224.00,13
223.00,13
222.00,13
221.00,13
220.00,12
219.00,12
218.00,12
217.00,12
216.00,12
215.00,12
214.00,12
213.00,11
212.00,10
211.00,10
210.00,9
209.00,9
208.00,8
207.00,8
206.00,8
205.00,8
204.00,8
203.00,8
202.00,8
201.00,8
200.00,8
199.00,8
198.00,7
197.00,7
196.00,6
195.00,6
194.00,6
193.00,5
192.00,5
191.00,5
190.00,5
189.00,5
188.00,5
187.00,5
186.00,4
185.00,4
184.00,4
183.00,4
182.00,4
181.00,4
180.00,3
179.00,3
178.00,3
177.00,2
176.00,2
175.00,2
174.00,1
173.00,1
172.00,1
171.00,2
170.00,2
169.00,2
168.00,2
167.00,2
166.00,2
165.00,3
164.00,3
163.00,3
162.00,3
161.00,3
160.00,4
159.00,4
158.00,4
157.00,4
156.00,3
155.00,3
154.00,2
153.00,2
152.00,2
151.00,1
150.00,1
149.00,1
148.00,1
147.00,1
146.00,2
145.00,4
144.00,5
143.00,6
142.00,8
141.00,10
140.00,12
139.00,15
138.00,17
137.00,19
136.00,20
135.00,21
134.00,23
133.00,24
132.00,25
131.00,27
130.00,29
129.00,31
128.00,33
127.00,35
126.00,37
125.00,38
124.00,40
123.00,41
122.00,42
121.00,43
120.00,44
119.00,45
118.00,46
117.00,47
116.00,48
115.00,50
114.00,52
113.00,54
112.00,56
111.00,57
110.00,58
109.00,58
108.00,58
107.00,58
106.00,59
105.00,61
104.00,63
103.00,66
102.00,68
101.00,67
100.00,67
