Created as New Dataset,
Raman Shift / cm-1,INT
3200.00,57
3199.00,79
3198.00,80
3197.00,132
3196.00,216
3195.00,200
3194.00,170
3193.00,208
3192.00,215
3191.00,171
3190.00,185
3189.00,228
3188.00,270
3187.00,346
3186.00,508
3185.00,581
3184.00,568
3183.00,559
3182.00,554
3181.00,562
3180.00,569
3179.00,569
3178.00,434
3177.00,202
3176.00,144
3175.00,143
3174.00,143
3173.00,142
3172.00,142
3171.00,162
3170.00,197
3169.00,205
3168.00,209
3167.00,241
3166.00,254
3165.00,218
3164.00,199
3163.00,196
3162.00,169
3161.00,124
3160.00,27
3159.00,-49
3158.00,-51
3157.00,-51
3156.00,-50
3155.00,-49
3154.00,-51
3153.00,-78
3152.00,-96
3151.00,-67
3150.00,-47
3149.00,-46
3148.00,62
3147.00,248
3146.00,340
3145.00,451
3144.00,890
3143.00,1147
3142.00,757
3141.00,500
3140.00,493
3139.00,397
3138.00,255
3137.00,220
3136.00,204
3135.00,102
3134.00,40
3133.00,116
3132.00,141
3131.00,85
3130.00,63
3129.00,62
3128.00,62
3127.00,62
3126.00,62
3125.00,61
3124.00,61
3123.00,80
3122.00,132
3121.00,127
3120.00,76
3119.00,78
3118.00,99
3117.00,83
3116.00,58
3115.00,32
3114.00,14
3113.00,13
3112.00,13
3111.00,13
3110.00,11
3109.00,10
3108.00,10
3107.00,9
3106.00,-10
3105.00,-29
3104.00,-30
3103.00,-30
3102.00,-30
3101.00,-29
3100.00,-29
3099.00,-29
3098.00,-27
3097.00,32
3096.00,116
3095.00,136
3094.00,143
3093.00,198
3092.00,250
3091.00,254
3090.00,223
3089.00,118
3088.00,45
3087.00,23
3086.00,13
3085.00,12
3084.00,-1
3083.00,-21
3082.00,-26
3081.00,-28
3080.00,-44
3079.00,-64
3078.00,-83
3077.00,-94
3076.00,-76
3075.00,-63
3074.00,-62
3073.00,-62
3072.00,-62
3071.00,-41
3070.00,-2
3069.00,36
3068.00,72
3067.00,69
3066.00,50
3065.00,31
3064.00,18
3063.00,47
3062.00,80
3061.00,100
3060.00,114
3059.00,114
3058.00,113
3057.00,113
3056.00,119
3055.00,135
3054.00,152
3053.00,169
3052.00,157
3051.00,122
3050.00,119
3049.00,135
3048.00,140
3047.00,138
3046.00,125
3045.00,107
3044.00,91
3043.00,77
3042.00,88
3041.00,99
3040.00,86
3039.00,70
3038.00,53
3037.00,48
3036.00,77
3035.00,95
3034.00,80
3033.00,53
3032.00,8
3031.00,14
3030.00,104
3029.00,123
3028.00,46
3027.00,8
3026.00,8
3025.00,56
3024.00,146
3023.00,307
3022.00,505
3021.00,528
3020.00,456
3019.00,459
3018.00,506
3017.00,681
3016.00,882
3015.00,763
3014.00,544
3013.00,427
3012.00,348
3011.00,341
3010.00,350
3009.00,329
3008.00,302
3007.00,286
3006.00,272
3005.00,269
3004.00,266
3003.00,253
3002.00,240
3001.00,238
3000.00,238
2999.00,249
2998.00,254
2997.00,231
2996.00,213
2995.00,233
2994.00,250
2993.00,239
2992.00,230
2991.00,239
2990.00,247
2989.00,247
2988.00,245
2987.00,244
2986.00,246
2985.00,256
2984.00,260
2983.00,238
2982.00,218
2981.00,216
2980.00,215
2979.00,214
2978.00,213
2977.00,212
2976.00,214
2975.00,224
2974.00,232
2973.00,232
2972.00,227
2971.00,205
2970.00,191
2969.00,219
2968.00,246
2967.00,247
2966.00,250
2965.00,269
2964.00,285
2963.00,276
2962.00,267
2961.00,273
2960.00,282
2959.00,291
2958.00,300
2957.00,300
2956.00,305
2955.00,363
2954.00,432
2953.00,477
2952.00,513
2951.00,510
2950.00,497
2949.00,476
2948.00,455
2947.00,447
2946.00,445
2945.00,443
2944.00,441
2943.00,433
2942.00,422
2941.00,411
2940.00,399
2939.00,359
2938.00,300
2937.00,266
2936.00,256
2935.00,228
2934.00,179
2933.00,150
2932.00,149
2931.00,152
2930.00,160
2929.00,171
2928.00,188
2927.00,200
2926.00,200
2925.00,198
2924.00,188
2923.00,179
2922.00,168
2921.00,160
2920.00,157
2919.00,156
2918.00,156
2917.00,155
2916.00,154
2915.00,153
2914.00,128
2913.00,95
2912.00,82
2911.00,81
2910.00,91
2909.00,106
2908.00,107
2907.00,89
2906.00,79
2905.00,78
2904.00,73
2903.00,57
2902.00,44
2901.00,43
2900.00,42
2899.00,42
2898.00,44
2897.00,64
2896.00,84
2895.00,76
2894.00,61
2893.00,68
2892.00,83
2891.00,102
2890.00,125
2889.00,147
2888.00,168
2887.00,172
2886.00,149
2885.00,132
2884.00,131
2883.00,140
2882.00,180
2881.00,205
2880.00,137
2879.00,64
2878.00,50
2877.00,51
2876.00,77
2875.00,111
2874.00,115
2873.00,100
2872.00,86
2871.00,71
2870.00,65
2869.00,71
2868.00,75
2867.00,75
2866.00,76
2865.00,82
2864.00,87
2863.00,82
2862.00,75
2861.00,78
2860.00,83
2859.00,85
2858.00,85
2857.00,81
2856.00,74
2855.00,69
2854.00,69
2853.00,66
2852.00,54
2851.00,43
2850.00,46
2849.00,51
2848.00,48
2847.00,41
2846.00,50
2845.00,69
2844.00,75
2843.00,68
2842.00,61
2841.00,55
2840.00,51
2839.00,56
2838.00,61
2837.00,61
2836.00,60
2835.00,51
2834.00,39
2833.00,33
2832.00,33
2831.00,40
2830.00,57
2829.00,67
2828.00,56
2827.00,45
2826.00,38
2825.00,33
2824.00,35
2823.00,40
2822.00,31
2821.00,14
2820.00,2
2819.00,-4
2818.00,-6
2817.00,-1
2816.00,4
2815.00,9
2814.00,14
2813.00,11
2812.00,5
2811.00,-1
2810.00,-6
2809.00,-8
2808.00,-3
2807.00,4
2806.00,13
2805.00,23
2804.00,24
2803.00,23
2802.00,16
2801.00,5
2800.00,8
2799.00,23
2798.00,33
2797.00,33
2796.00,34
2795.00,43
2794.00,52
2793.00,50
2792.00,44
2791.00,42
2790.00,42
2789.00,39
2788.00,34
2787.00,32
2786.00,40
2785.00,48
2784.00,50
2783.00,50
2782.00,46
2781.00,41
2780.00,40
2779.00,44
2778.00,51
2777.00,68
2776.00,84
2775.00,65
2774.00,36
2773.00,33
2772.00,46
2771.00,58
2770.00,67
2769.00,73
2768.00,69
2767.00,64
2766.00,63
2765.00,63
2764.00,62
2763.00,62
2762.00,59
2761.00,50
2760.00,40
2759.00,27
2758.00,14
2757.00,16
2756.00,24
2755.00,25
2754.00,16
2753.00,9
2752.00,8
2751.00,8
2750.00,8
2749.00,7
2748.00,15
2747.00,27
2746.00,32
2745.00,24
2744.00,16
2743.00,11
2742.00,6
2741.00,5
2740.00,5
2739.00,6
2738.00,10
2737.00,11
2736.00,4
2735.00,-7
2734.00,-46
2733.00,-94
2732.00,-85
2731.00,-26
2730.00,18
2729.00,20
2728.00,19
2727.00,16
2726.00,11
2725.00,14
2724.00,21
2723.00,26
2722.00,26
2721.00,26
2720.00,32
2719.00,40
2718.00,42
2717.00,42
2716.00,43
2715.00,46
2714.00,48
2713.00,42
2712.00,34
2711.00,33
2710.00,36
2709.00,38
2708.00,38
2707.00,37
2706.00,34
2705.00,30
2704.00,24
2703.00,17
2702.00,13
2701.00,20
2700.00,26
2699.00,27
2698.00,26
2697.00,26
2696.00,25
2695.00,25
2694.00,25
2693.00,24
2692.00,27
2691.00,30
2690.00,31
2689.00,31
2688.00,33
2687.00,42
2686.00,51
2685.00,48
2684.00,41
2683.00,38
2682.00,41
2681.00,43
2680.00,40
2679.00,36
2678.00,37
2677.00,40
2676.00,41
2675.00,37
2674.00,34
2673.00,33
2672.00,33
2671.00,33
2670.00,32
2669.00,33
2668.00,35
2667.00,38
2666.00,41
2665.00,44
2664.00,46
2663.00,49
2662.00,53
2661.00,61
2660.00,70
2659.00,75
2658.00,77
2657.00,74
2656.00,59
2655.00,43
2654.00,25
2653.00,6
2652.00,-4
2651.00,-4
2650.00,-4
2649.00,-5
2648.00,-5
2647.00,4
2646.00,19
2645.00,29
2644.00,29
2643.00,30
2642.00,38
2641.00,50
2640.00,53
2639.00,43
2638.00,35
2637.00,34
2636.00,33
2635.00,34
2634.00,37
2633.00,38
2632.00,38
2631.00,38
2630.00,35
2629.00,32
2628.00,28
2627.00,22
2626.00,17
2625.00,15
2624.00,15
2623.00,15
2622.00,14
2621.00,13
2620.00,11
2619.00,8
2618.00,6
2617.00,6
2616.00,7
2615.00,17
2614.00,27
2613.00,31
2612.00,30
2611.00,30
2610.00,29
2609.00,29
2608.00,29
2607.00,28
2606.00,29
2605.00,31
2604.00,33
2603.00,31
2602.00,28
2601.00,26
2600.00,26
2599.00,25
2598.00,25
2597.00,25
2596.00,26
2595.00,31
2594.00,35
2593.00,35
2592.00,34
2591.00,35
2590.00,37
2589.00,38
2588.00,34
2587.00,29
2586.00,24
2585.00,19
2584.00,14
2583.00,11
2582.00,8
2581.00,21
2580.00,47
2579.00,65
2578.00,47
2577.00,26
2576.00,8
2575.00,-6
2574.00,-14
2573.00,4
2572.00,24
2571.00,32
2570.00,32
2569.00,30
2568.00,23
2567.00,16
2566.00,17
2565.00,23
2564.00,28
2563.00,29
2562.00,28
2561.00,28
2560.00,27
2559.00,27
2558.00,24
2557.00,21
2556.00,23
2555.00,27
2554.00,30
2553.00,26
2552.00,21
2551.00,18
2550.00,15
2549.00,13
2548.00,12
2547.00,12
2546.00,12
2545.00,11
2544.00,11
2543.00,10
2542.00,10
2541.00,10
2540.00,9
2539.00,10
2538.00,16
2537.00,24
2536.00,30
2535.00,32
2534.00,33
2533.00,32
2532.00,29
2531.00,27
2530.00,24
2529.00,22
2528.00,21
2527.00,21
2526.00,20
2525.00,18
2524.00,15
2523.00,14
2522.00,14
2521.00,14
2520.00,17
2519.00,21
2518.00,22
2517.00,22
2516.00,21
2515.00,21
2514.00,21
2513.00,21
2512.00,23
2511.00,24
2510.00,26
2509.00,27
2508.00,28
2507.00,28
2506.00,28
2505.00,27
2504.00,27
2503.00,27
2502.00,28
2501.00,30
2500.00,27
2499.00,21
2498.00,16
2497.00,15
2496.00,14
2495.00,13
2494.00,9
2493.00,5
2492.00,4
2491.00,3
2490.00,2
2489.00,-2
2488.00,-6
2487.00,-2
2486.00,7
2485.00,15
2484.00,18
2483.00,22
2482.00,22
2481.00,18
2480.00,14
2479.00,17
2478.00,22
2477.00,26
2476.00,26
2475.00,25
2474.00,20
2473.00,11
2472.00,2
2471.00,-2
2470.00,-6
2469.00,-8
2468.00,-7
2467.00,-5
2466.00,-6
2465.00,-8
2464.00,-10
2463.00,-10
2462.00,-11
2461.00,-10
2460.00,-9
2459.00,-7
2458.00,-4
2457.00,-1
2456.00,1
2455.00,-1
2454.00,-3
2453.00,-0
2452.00,6
2451.00,12
2450.00,12
2449.00,12
2448.00,13
2447.00,17
2446.00,22
2445.00,22
2444.00,20
2443.00,18
2442.00,16
2441.00,14
2440.00,12
2439.00,10
2438.00,8
2437.00,9
2436.00,10
2435.00,11
2434.00,11
2433.00,10
2432.00,9
2431.00,5
2430.00,2
2429.00,-0
2428.00,-2
2427.00,-3
2426.00,3
2425.00,9
2424.00,13
2423.00,16
2422.00,18
2421.00,8
2420.00,-6
2419.00,-18
2418.00,-22
2417.00,-25
2416.00,-13
2415.00,20
2414.00,52
2413.00,59
2412.00,57
2411.00,49
2410.00,15
2409.00,-22
2408.00,-40
2407.00,-29
2406.00,-17
2405.00,-7
2404.00,3
2403.00,11
2402.00,3
2401.00,-8
2400.00,-15
2399.00,-16
2398.00,-16
2397.00,-1
2396.00,23
2395.00,45
2394.00,44
2393.00,38
2392.00,33
2391.00,32
2390.00,32
2389.00,31
2388.00,31
2387.00,31
2386.00,26
2385.00,20
2384.00,15
2383.00,13
2382.00,11
2381.00,10
2380.00,9
2379.00,9
2378.00,7
2377.00,6
2376.00,4
2375.00,2
2374.00,0
2373.00,-1
2372.00,-1
2371.00,-2
2370.00,-2
2369.00,-2
2368.00,-2
2367.00,-1
2366.00,2
2365.00,4
2364.00,1
2363.00,-2
2362.00,-3
2361.00,-1
2360.00,2
2359.00,6
2358.00,13
2357.00,19
2356.00,20
2355.00,20
2354.00,19
2353.00,17
2352.00,16
2351.00,14
2350.00,14
2349.00,13
2348.00,11
2347.00,7
2346.00,3
2345.00,1
2344.00,-1
2343.00,-2
2342.00,-3
2341.00,-3
2340.00,-4
2339.00,-4
2338.00,-4
2337.00,-2
2336.00,1
2335.00,4
2334.00,5
2333.00,5
2332.00,5
2331.00,5
2330.00,6
2329.00,7
2328.00,7
2327.00,6
2326.00,5
2325.00,1
2324.00,-3
2323.00,-5
2322.00,-5
2321.00,-5
2320.00,-4
2319.00,-1
2318.00,1
2317.00,3
2316.00,5
2315.00,9
2314.00,15
2313.00,20
2312.00,24
2311.00,25
2310.00,26
2309.00,26
2308.00,25
2307.00,25
2306.00,24
2305.00,24
2304.00,24
2303.00,22
2302.00,21
2301.00,20
2300.00,20
2299.00,20
2298.00,19
2297.00,19
2296.00,19
2295.00,19
2294.00,20
2293.00,21
2292.00,21
2291.00,21
2290.00,20
2289.00,17
2288.00,13
2287.00,11
2286.00,14
2285.00,17
2284.00,20
2283.00,22
2282.00,24
2281.00,24
2280.00,23
2279.00,21
2278.00,18
2277.00,14
2276.00,11
2275.00,9
2274.00,7
2273.00,6
2272.00,6
2271.00,5
2270.00,5
2269.00,5
2268.00,5
2267.00,5
2266.00,6
2265.00,7
2264.00,6
2263.00,5
2262.00,4
2261.00,3
2260.00,3
2259.00,3
2258.00,3
2257.00,2
2256.00,2
2255.00,-1
2254.00,-3
2253.00,-5
2252.00,-6
2251.00,-6
2250.00,-4
2249.00,1
2248.00,8
2247.00,12
2246.00,13
2245.00,14
2244.00,12
2243.00,7
2242.00,3
2241.00,-3
2240.00,-10
2239.00,-16
2238.00,-18
2237.00,-17
2236.00,-16
2235.00,-17
2234.00,-18
2233.00,-20
2232.00,-27
2231.00,-35
2230.00,-38
2229.00,-21
2228.00,-2
2227.00,15
2226.00,25
2225.00,34
2224.00,38
2223.00,28
2222.00,18
2221.00,9
2220.00,3
2219.00,-4
2218.00,-4
2217.00,2
2216.00,8
2215.00,10
2214.00,7
2213.00,5
2212.00,4
2211.00,4
2210.00,4
2209.00,4
2208.00,5
2207.00,6
2206.00,7
2205.00,8
2204.00,8
2203.00,8
2202.00,8
2201.00,7
2200.00,5
2199.00,3
2198.00,1
2197.00,1
2196.00,1
2195.00,0
2194.00,0
2193.00,-0
2192.00,-0
2191.00,1
2190.00,1
2189.00,1
2188.00,-1
2187.00,-3
2186.00,-5
2185.00,-5
2184.00,-5
2183.00,-6
2182.00,-6
2181.00,-6
2180.00,-5
2179.00,-2
2178.00,1
2177.00,2
2176.00,2
2175.00,2
2174.00,2
2173.00,3
2172.00,4
2171.00,4
2170.00,4
2169.00,3
2168.00,2
2167.00,1
2166.00,-0
2165.00,-1
2164.00,-1
2163.00,-1
2162.00,0
2161.00,2
2160.00,4
2159.00,3
2158.00,2
2157.00,0
2156.00,-0
2155.00,-0
2154.00,0
2153.00,6
2152.00,14
2151.00,20
2150.00,17
2149.00,12
2148.00,7
2147.00,7
2146.00,8
2145.00,8
2144.00,8
2143.00,8
2142.00,8
2141.00,8
2140.00,7
2139.00,6
2138.00,6
2137.00,6
2136.00,5
2135.00,5
2134.00,5
2133.00,4
2132.00,3
2131.00,2
2130.00,-0
2129.00,-6
2128.00,-12
2127.00,-17
2126.00,-16
2125.00,-14
2124.00,-12
2123.00,-12
2122.00,-12
2121.00,-13
2120.00,-11
2119.00,-10
2118.00,-9
2117.00,-9
2116.00,-8
2115.00,-8
2114.00,-8
2113.00,-9
2112.00,-9
2111.00,-9
2110.00,-9
2109.00,-8
2108.00,-5
2107.00,-1
2106.00,2
2105.00,2
2104.00,2
2103.00,1
2102.00,3
2101.00,4
2100.00,6
2099.00,6
2098.00,5
2097.00,5
2096.00,6
2095.00,7
2094.00,9
2093.00,11
2092.00,14
2091.00,16
2090.00,17
2089.00,18
2088.00,19
2087.00,20
2086.00,22
2085.00,23
2084.00,22
2083.00,20
2082.00,17
2081.00,15
2080.00,13
2079.00,12
2078.00,11
2077.00,11
2076.00,11
2075.00,11
2074.00,10
2073.00,9
2072.00,8
2071.00,6
2070.00,5
2069.00,4
2068.00,6
2067.00,7
2066.00,9
2065.00,12
2064.00,16
2063.00,17
2062.00,11
2061.00,4
2060.00,-1
2059.00,-3
2058.00,-3
2057.00,-4
2056.00,0
2055.00,5
2054.00,9
2053.00,8
2052.00,6
2051.00,4
2050.00,3
2049.00,2
2048.00,2
2047.00,1
2046.00,0
2045.00,-1
2044.00,-1
2043.00,-0
2042.00,0
2041.00,1
2040.00,1
2039.00,1
2038.00,1
2037.00,3
2036.00,4
2035.00,3
2034.00,0
2033.00,-3
2032.00,-6
2031.00,-11
2030.00,-15
2029.00,-17
2028.00,-12
2027.00,-7
2026.00,-3
2025.00,-9
2024.00,-16
2023.00,-23
2022.00,-26
2021.00,-29
2020.00,-31
2019.00,-29
2018.00,-25
2017.00,-21
2016.00,-16
2015.00,-10
2014.00,-3
2013.00,-2
2012.00,-5
2011.00,-9
2010.00,-9
2009.00,-5
2008.00,-1
2007.00,2
2006.00,2
2005.00,1
2004.00,2
2003.00,4
2002.00,6
2001.00,7
2000.00,6
1999.00,3
1998.00,1
1997.00,1
1996.00,0
1995.00,-1
1994.00,-1
1993.00,-1
1992.00,-2
1991.00,-2
1990.00,-3
1989.00,-3
1988.00,-3
1987.00,-3
1986.00,-3
1985.00,-3
1984.00,-1
1983.00,0
1982.00,1
1981.00,1
1980.00,-0
1979.00,-1
1978.00,1
1977.00,4
1976.00,8
1975.00,12
1974.00,16
1973.00,20
1972.00,21
1971.00,21
1970.00,21
1969.00,20
1968.00,18
1967.00,16
1966.00,14
1965.00,14
1964.00,13
1963.00,12
1962.00,8
1961.00,3
1960.00,-2
1959.00,-3
1958.00,-4
1957.00,-4
1956.00,-1
1955.00,3
1954.00,8
1953.00,12
1952.00,16
1951.00,20
1950.00,22
1949.00,22
1948.00,22
1947.00,21
1946.00,21
1945.00,21
1944.00,21
1943.00,21
1942.00,20
1941.00,19
1940.00,15
1939.00,8
1938.00,1
1937.00,-3
1936.00,-3
1935.00,-4
1934.00,-3
1933.00,0
1932.00,4
1931.00,7
1930.00,7
1929.00,7
1928.00,6
1927.00,7
1926.00,8
1925.00,9
1924.00,10
1923.00,10
1922.00,11
1921.00,11
1920.00,10
1919.00,10
1918.00,9
1917.00,8
1916.00,7
1915.00,5
1914.00,6
1913.00,6
1912.00,7
1911.00,7
1910.00,7
1909.00,7
1908.00,6
1907.00,6
1906.00,5
1905.00,5
1904.00,7
1903.00,9
1902.00,10
1901.00,10
1900.00,9
1899.00,8
1898.00,7
1897.00,8
1896.00,9
1895.00,9
1894.00,10
1893.00,10
1892.00,10
1891.00,10
1890.00,9
1889.00,9
1888.00,10
1887.00,11
1886.00,12
1885.00,14
1884.00,14
1883.00,15
1882.00,16
1881.00,15
1880.00,14
1879.00,13
1878.00,13
1877.00,13
1876.00,13
1875.00,14
1874.00,15
1873.00,16
1872.00,16
1871.00,16
1870.00,16
1869.00,15
1868.00,13
1867.00,10
1866.00,8
1865.00,10
1864.00,15
1863.00,19
1862.00,21
1861.00,20
1860.00,19
1859.00,18
1858.00,15
1857.00,12
1856.00,9
1855.00,12
1854.00,16
1853.00,20
1852.00,23
1851.00,25
1850.00,26
1849.00,26
1848.00,23
1847.00,20
1846.00,18
1845.00,17
1844.00,16
1843.00,15
1842.00,15
1841.00,15
1840.00,15
1839.00,15
1838.00,14
1837.00,14
1836.00,13
1835.00,13
1834.00,13
1833.00,13
1832.00,13
1831.00,14
1830.00,15
1829.00,16
1828.00,18
1827.00,20
1826.00,21
1825.00,22
1824.00,23
1823.00,24
1822.00,25
1821.00,25
1820.00,25
1819.00,25
1818.00,25
1817.00,25
1816.00,25
1815.00,25
1814.00,26
1813.00,26
1812.00,25
1811.00,23
1810.00,21
1809.00,20
1808.00,22
1807.00,23
1806.00,25
1805.00,23
1804.00,20
1803.00,18
1802.00,17
1801.00,19
1800.00,20
1799.00,21
1798.00,20
1797.00,19
1796.00,18
1795.00,17
1794.00,17
1793.00,17
1792.00,18
1791.00,21
1790.00,24
1789.00,27
1788.00,32
1787.00,36
1786.00,41
1785.00,45
1784.00,49
1783.00,54
1782.00,57
1781.00,58
1780.00,59
1779.00,60
1778.00,62
1777.00,64
1776.00,65
1775.00,69
1774.00,74
1773.00,79
1772.00,83
1771.00,83
1770.00,83
1769.00,82
1768.00,82
1767.00,82
1766.00,81
1765.00,81
1764.00,80
1763.00,79
1762.00,78
1761.00,78
1760.00,78
1759.00,77
1758.00,77
1757.00,77
1756.00,77
1755.00,76
1754.00,75
1753.00,74
1752.00,73
1751.00,70
1750.00,65
1749.00,61
1748.00,57
1747.00,57
1746.00,57
1745.00,56
1744.00,56
1743.00,55
1742.00,54
1741.00,52
1740.00,49
1739.00,46
1738.00,43
1737.00,42
1736.00,41
1735.00,40
1734.00,39
1733.00,39
1732.00,38
1731.00,37
1730.00,36
1729.00,34
1728.00,32
1727.00,32
1726.00,33
1725.00,34
1724.00,35
1723.00,35
1722.00,36
1721.00,37
1720.00,36
1719.00,35
1718.00,35
1717.00,34
1716.00,33
1715.00,32
1714.00,31
1713.00,31
1712.00,31
1711.00,32
1710.00,32
1709.00,31
1708.00,31
1707.00,30
1706.00,29
1705.00,28
1704.00,26
1703.00,25
1702.00,25
1701.00,24
1700.00,24
1699.00,23
1698.00,22
1697.00,22
1696.00,21
1695.00,21
1694.00,20
1693.00,20
1692.00,21
1691.00,23
1690.00,25
1689.00,25
1688.00,23
1687.00,22
1686.00,21
1685.00,21
1684.00,21
1683.00,22
1682.00,23
1681.00,25
1680.00,28
1679.00,29
1678.00,29
1677.00,28
1676.00,28
1675.00,28
1674.00,29
1673.00,30
1672.00,30
1671.00,31
1670.00,31
1669.00,31
1668.00,31
1667.00,31
1666.00,30
1665.00,30
1664.00,30
1663.00,30
1662.00,30
1661.00,29
1660.00,28
1659.00,28
1658.00,27
1657.00,28
1656.00,30
1655.00,31
1654.00,31
1653.00,30
1652.00,29
1651.00,27
1650.00,27
1649.00,27
1648.00,27
1647.00,26
1646.00,25
1645.00,25
1644.00,24
1643.00,24
1642.00,25
1641.00,25
1640.00,26
1639.00,26
1638.00,26
1637.00,26
1636.00,26
1635.00,25
1634.00,25
1633.00,24
1632.00,22
1631.00,21
1630.00,20
1629.00,20
1628.00,21
1627.00,21
1626.00,22
1625.00,25
1624.00,28
1623.00,32
1622.00,33
1621.00,32
1620.00,32
1619.00,31
1618.00,31
1617.00,31
1616.00,31
1615.00,31
1614.00,32
1613.00,32
1612.00,32
1611.00,33
1610.00,33
1609.00,34
1608.00,34
1607.00,35
1606.00,36
1605.00,37
1604.00,37
1603.00,37
1602.00,36
1601.00,35
1600.00,35
1599.00,34
1598.00,34
1597.00,33
1596.00,32
1595.00,31
1594.00,30
1593.00,29
1592.00,28
1591.00,28
1590.00,27
1589.00,26
1588.00,26
1587.00,26
1586.00,25
1585.00,25
1584.00,25
1583.00,26
1582.00,27
1581.00,28
1580.00,29
1579.00,30
1578.00,30
1577.00,30
1576.00,30
1575.00,31
1574.00,32
1573.00,33
1572.00,35
1571.00,35
1570.00,36
1569.00,36
1568.00,36
1567.00,36
1566.00,35
1565.00,35
1564.00,34
1563.00,34
1562.00,33
1561.00,32
1560.00,31
1559.00,29
1558.00,28
1557.00,28
1556.00,27
1555.00,27
1554.00,27
1553.00,25
1552.00,23
1551.00,21
1550.00,20
1549.00,20
1548.00,19
1547.00,19
1546.00,19
1545.00,20
1544.00,22
1543.00,23
1542.00,23
1541.00,24
1540.00,24
1539.00,24
1538.00,24
1537.00,24
1536.00,23
1535.00,26
1534.00,29
1533.00,32
1532.00,34
1531.00,33
1530.00,33
1529.00,32
1528.00,32
1527.00,32
1526.00,32
1525.00,32
1524.00,32
1523.00,32
1522.00,32
1521.00,33
1520.00,32
1519.00,32
1518.00,32
1517.00,32
1516.00,31
1515.00,30
1514.00,29
1513.00,29
1512.00,29
1511.00,29
1510.00,29
1509.00,28
1508.00,26
1507.00,25
1506.00,24
1505.00,24
1504.00,24
1503.00,24
1502.00,24
1501.00,24
1500.00,23
1499.00,23
1498.00,25
1497.00,28
1496.00,30
1495.00,31
1494.00,31
1493.00,31
1492.00,31
1491.00,31
1490.00,31
1489.00,30
1488.00,30
1487.00,33
1486.00,36
1485.00,39
1484.00,41
1483.00,41
1482.00,42
1481.00,42
1480.00,42
1479.00,42
1478.00,42
1477.00,43
1476.00,48
1475.00,54
1474.00,59
1473.00,64
1472.00,66
1471.00,66
1470.00,67
1469.00,69
1468.00,71
1467.00,73
1466.00,75
1465.00,81
1464.00,89
1463.00,97
1462.00,105
1461.00,115
1460.00,125
1459.00,135
1458.00,143
1457.00,143
1456.00,143
1455.00,142
1454.00,142
1453.00,141
1452.00,141
1451.00,140
1450.00,136
1449.00,130
1448.00,124
1447.00,117
1446.00,109
1445.00,101
1444.00,93
1443.00,86
1442.00,82
1441.00,79
1440.00,75
1439.00,72
1438.00,68
1437.00,64
1436.00,60
1435.00,56
1434.00,51
1433.00,47
1432.00,43
1431.00,40
1430.00,37
1429.00,35
1428.00,33
1427.00,32
1426.00,32
1425.00,31
1424.00,31
1423.00,31
1422.00,31
1421.00,31
1420.00,32
1419.00,33
1418.00,35
1417.00,36
1416.00,37
1415.00,38
1414.00,38
1413.00,39
1412.00,39
1411.00,38
1410.00,37
1409.00,37
1408.00,37
1407.00,37
1406.00,37
1405.00,37
1404.00,37
1403.00,37
1402.00,37
1401.00,38
1400.00,39
1399.00,40
1398.00,41
1397.00,43
1396.00,45
1395.00,47
1394.00,48
1393.00,50
1392.00,51
1391.00,52
1390.00,53
1389.00,53
1388.00,52
1387.00,52
1386.00,52
1385.00,52
1384.00,52
1383.00,52
1382.00,52
1381.00,51
1380.00,51
1379.00,51
1378.00,53
1377.00,57
1376.00,61
1375.00,64
1374.00,65
1373.00,66
1372.00,66
1371.00,66
1370.00,65
1369.00,65
1368.00,64
1367.00,63
1366.00,63
1365.00,62
1364.00,62
1363.00,63
1362.00,64
1361.00,66
1360.00,68
1359.00,69
1358.00,68
1357.00,67
1356.00,67
1355.00,65
1354.00,64
1353.00,62
1352.00,61
1351.00,60
1350.00,60
1349.00,60
1348.00,60
1347.00,59
1346.00,59
1345.00,59
1344.00,58
1343.00,58
1342.00,57
1341.00,57
1340.00,56
1339.00,56
1338.00,55
1337.00,55
1336.00,54
1335.00,55
1334.00,55
1333.00,55
1332.00,56
1331.00,55
1330.00,55
1329.00,55
1328.00,55
1327.00,55
1326.00,56
1325.00,56
1324.00,56
1323.00,55
1322.00,54
1321.00,53
1320.00,53
1319.00,53
1318.00,53
1317.00,53
1316.00,54
1315.00,56
1314.00,57
1313.00,59
1312.00,59
1311.00,59
1310.00,58
1309.00,59
1308.00,61
1307.00,64
1306.00,67
1305.00,70
1304.00,70
1303.00,70
1302.00,70
1301.00,70
1300.00,69
1299.00,69
1298.00,69
1297.00,68
1296.00,68
1295.00,68
1294.00,68
1293.00,67
1292.00,66
1291.00,65
1290.00,64
1289.00,61
1288.00,55
1287.00,49
1286.00,43
1285.00,39
1284.00,38
1283.00,37
1282.00,36
1281.00,35
1280.00,34
1279.00,33
1278.00,31
1277.00,31
1276.00,32
1275.00,32
1274.00,33
1273.00,32
1272.00,30
1271.00,28
1270.00,26
1269.00,26
1268.00,27
1267.00,27
1266.00,28
1265.00,27
1264.00,27
1263.00,27
1262.00,26
1261.00,26
1260.00,26
1259.00,26
1258.00,26
1257.00,26
1256.00,25
1255.00,25
1254.00,24
1253.00,24
1252.00,24
1251.00,24
1250.00,24
1249.00,23
1248.00,22
1247.00,22
1246.00,21
1245.00,21
1244.00,20
1243.00,20
1242.00,19
1241.00,17
1240.00,15
1239.00,13
1238.00,11
1237.00,11
1236.00,10
1235.00,9
1234.00,9
1233.00,8
1232.00,8
1231.00,7
1230.00,7
1229.00,7
1228.00,8
1227.00,8
1226.00,9
1225.00,10
1224.00,11
1223.00,13
1222.00,14
1221.00,15
1220.00,16
1219.00,17
1218.00,18
1217.00,19
1216.00,21
1215.00,22
1214.00,23
1213.00,21
1212.00,19
1211.00,17
1210.00,16
1209.00,15
1208.00,14
1207.00,14
1206.00,13
1205.00,14
1204.00,15
1203.00,15
1202.00,16
1201.00,18
1200.00,20
1199.00,22
1198.00,24
1197.00,24
1196.00,24
1195.00,24
1194.00,24
1193.00,24
1192.00,25
1191.00,26
1190.00,26
1189.00,27
1188.00,27
1187.00,28
1186.00,28
1185.00,28
1184.00,27
1183.00,26
1182.00,25
1181.00,24
1180.00,24
1179.00,23
1178.00,23
1177.00,21
1176.00,20
1175.00,18
1174.00,16
1173.00,15
1172.00,13
1171.00,12
1170.00,11
1169.00,10
1168.00,9
1167.00,9
1166.00,8
1165.00,8
1164.00,8
1163.00,8
1162.00,8
1161.00,8
1160.00,7
1159.00,7
1158.00,6
1157.00,6
1156.00,8
1155.00,10
1154.00,12
1153.00,13
1152.00,14
1151.00,15
1150.00,15
1149.00,17
1148.00,21
1147.00,26
1146.00,30
1145.00,34
1144.00,35
1143.00,36
1142.00,38
1141.00,39
1140.00,43
1139.00,46
1138.00,50
1137.00,53
1136.00,53
1135.00,53
1134.00,53
1133.00,53
1132.00,53
1131.00,52
1130.00,52
1129.00,52
1128.00,52
1127.00,52
1126.00,52
1125.00,53
1124.00,52
1123.00,51
1122.00,50
1121.00,49
1120.00,48
1119.00,46
1118.00,45
1117.00,43
1116.00,42
1115.00,41
1114.00,40
1113.00,40
1112.00,40
1111.00,41
1110.00,43
1109.00,44
1108.00,45
1107.00,43
1106.00,42
1105.00,40
1104.00,39
1103.00,39
1102.00,40
1101.00,41
1100.00,42
1099.00,43
1098.00,44
1097.00,46
1096.00,47
1095.00,47
1094.00,46
1093.00,45
1092.00,45
1091.00,42
1090.00,38
1089.00,34
1088.00,31
1087.00,29
1086.00,28
1085.00,28
1084.00,27
1083.00,26
1082.00,22
1081.00,19
1080.00,16
1079.00,13
1078.00,11
1077.00,10
1076.00,8
1075.00,7
1074.00,8
1073.00,10
1072.00,11
1071.00,13
1070.00,13
1069.00,12
1068.00,11
1067.00,11
1066.00,11
1065.00,11
1064.00,12
1063.00,12
1062.00,15
1061.00,20
1060.00,25
1059.00,30
1058.00,34
1057.00,35
1056.00,36
1055.00,37
1054.00,38
1053.00,40
1052.00,42
1051.00,44
1050.00,46
1049.00,46
1048.00,46
1047.00,47
1046.00,47
1045.00,47
1044.00,46
1043.00,46
1042.00,46
1041.00,46
1040.00,45
1039.00,44
1038.00,44
1037.00,41
1036.00,36
1035.00,30
1034.00,25
1033.00,20
1032.00,17
1031.00,14
1030.00,11
1029.00,9
1028.00,8
1027.00,7
1026.00,7
1025.00,7
1024.00,6
1023.00,4
1022.00,3
1021.00,2
1020.00,1
1019.00,-0
1018.00,-1
1017.00,-2
1016.00,-3
1015.00,-4
1014.00,-4
1013.00,-5
1012.00,-5
1011.00,-4
1010.00,-2
1009.00,-1
1008.00,0
1007.00,-1
1006.00,-3
1005.00,-4
1004.00,-6
1003.00,-7
1002.00,-8
1001.00,-9
1000.00,-9
999.00,-9
998.00,-8
997.00,-7
996.00,-6
995.00,-5
994.00,-5
993.00,-6
992.00,-6
991.00,-6
990.00,-6
989.00,-6
988.00,-6
987.00,-6
986.00,-6
985.00,-5
984.00,-4
983.00,-3
982.00,-3
981.00,-3
980.00,-4
979.00,-5
978.00,-5
977.00,-6
976.00,-6
975.00,-6
974.00,-7
973.00,-7
972.00,-7
971.00,-7
970.00,-7
969.00,-6
968.00,-4
967.00,-2
966.00,-0
965.00,1
964.00,1
963.00,0
962.00,-0
961.00,-1
960.00,-1
959.00,-0
958.00,-0
957.00,0
956.00,0
955.00,-0
954.00,-1
953.00,-1
952.00,-2
951.00,-2
950.00,-2
949.00,-3
948.00,-3
947.00,-2
946.00,-2
945.00,-1
944.00,0
943.00,1
942.00,1
941.00,2
940.00,2
939.00,3
938.00,5
937.00,6
936.00,8
935.00,9
934.00,9
933.00,9
932.00,9
931.00,8
930.00,8
929.00,8
928.00,8
927.00,8
926.00,9
925.00,10
924.00,11
923.00,12
922.00,13
921.00,14
920.00,14
919.00,15
918.00,15
917.00,14
916.00,13
915.00,12
914.00,11
913.00,11
912.00,12
911.00,13
910.00,14
909.00,15
908.00,15
907.00,14
906.00,13
905.00,13
904.00,12
903.00,12
902.00,11
901.00,11
900.00,10
899.00,10
898.00,10
897.00,9
896.00,9
895.00,10
894.00,11
893.00,13
892.00,14
891.00,17
890.00,21
889.00,25
888.00,29
887.00,35
886.00,46
885.00,56
884.00,68
883.00,79
882.00,87
881.00,96
880.00,104
879.00,113
878.00,116
877.00,115
876.00,114
875.00,114
874.00,113
873.00,113
872.00,112
871.00,112
870.00,112
869.00,111
868.00,111
867.00,110
866.00,109
865.00,106
864.00,98
863.00,90
862.00,81
861.00,73
860.00,65
859.00,56
858.00,47
857.00,38
856.00,32
855.00,27
854.00,23
853.00,19
852.00,15
851.00,13
850.00,11
849.00,9
848.00,8
847.00,6
846.00,5
845.00,3
844.00,2
843.00,0
842.00,-1
841.00,-2
840.00,-3
839.00,-4
838.00,-4
837.00,-5
836.00,-5
835.00,-5
834.00,-6
833.00,-6
832.00,-6
831.00,-6
830.00,-7
829.00,-6
828.00,-6
827.00,-6
826.00,-5
825.00,-5
824.00,-6
823.00,-6
822.00,-6
821.00,-6
820.00,-7
819.00,-7
818.00,-7
817.00,-7
816.00,-6
815.00,-6
814.00,-5
813.00,-4
812.00,-4
811.00,-4
810.00,-5
809.00,-5
808.00,-6
807.00,-6
806.00,-7
805.00,-7
804.00,-7
803.00,-8
802.00,-7
801.00,-7
800.00,-7
799.00,-6
798.00,-4
797.00,-1
796.00,3
795.00,6
794.00,7
793.00,7
792.00,6
791.00,6
790.00,5
789.00,4
788.00,4
787.00,4
786.00,3
785.00,3
784.00,2
783.00,1
782.00,0
781.00,-1
780.00,-0
779.00,0
778.00,1
777.00,1
776.00,1
775.00,-1
774.00,-2
773.00,-4
772.00,-5
771.00,-5
770.00,-5
769.00,-4
768.00,-4
767.00,-4
766.00,-5
765.00,-5
764.00,-6
763.00,-7
762.00,-4
761.00,-0
760.00,3
759.00,6
758.00,8
757.00,8
756.00,8
755.00,7
754.00,7
753.00,7
752.00,8
751.00,8
750.00,8
749.00,8
748.00,9
747.00,10
746.00,10
745.00,11
744.00,11
743.00,10
742.00,10
741.00,9
740.00,9
739.00,8
738.00,8
737.00,7
736.00,6
735.00,6
734.00,5
733.00,5
732.00,4
731.00,4
730.00,3
729.00,3
728.00,2
727.00,2
726.00,0
725.00,-1
724.00,-2
723.00,-3
722.00,-4
721.00,-4
720.00,-3
719.00,-3
718.00,-3
717.00,-3
716.00,-3
715.00,-3
714.00,-4
713.00,-4
712.00,-2
711.00,-1
710.00,0
709.00,2
708.00,4
707.00,8
706.00,12
705.00,16
704.00,19
703.00,20
702.00,20
701.00,21
700.00,21
699.00,21
698.00,20
697.00,19
696.00,19
695.00,18
694.00,17
693.00,17
692.00,16
691.00,15
690.00,15
689.00,15
688.00,15
687.00,15
686.00,15
685.00,15
684.00,16
683.00,16
682.00,16
681.00,16
680.00,17
679.00,17
678.00,18
677.00,18
676.00,19
675.00,19
674.00,19
673.00,19
672.00,20
671.00,19
670.00,19
669.00,18
668.00,17
667.00,17
666.00,16
665.00,16
664.00,16
663.00,15
662.00,15
661.00,15
660.00,15
659.00,15
658.00,14
657.00,14
656.00,14
655.00,14
654.00,14
653.00,14
652.00,14
651.00,15
650.00,16
649.00,16
648.00,16
647.00,16
646.00,16
645.00,16
644.00,16
643.00,15
642.00,15
641.00,14
640.00,13
639.00,13
638.00,13
637.00,13
636.00,13
635.00,13
634.00,16
633.00,20
632.00,24
631.00,28
630.00,32
629.00,33
628.00,33
627.00,34
626.00,34
625.00,35
624.00,34
623.00,33
622.00,33
621.00,32
620.00,32
619.00,31
618.00,31
617.00,31
616.00,30
615.00,29
614.00,28
613.00,27
612.00,26
611.00,27
610.00,31
609.00,35
608.00,39
607.00,44
606.00,45
605.00,45
604.00,46
603.00,46
602.00,46
601.00,46
600.00,45
599.00,45
598.00,44
597.00,44
596.00,43
595.00,42
594.00,42
593.00,41
592.00,40
591.00,39
590.00,37
589.00,36
588.00,35
587.00,33
586.00,31
585.00,29
584.00,28
583.00,26
582.00,25
581.00,25
580.00,24
579.00,23
578.00,23
577.00,22
576.00,21
575.00,21
574.00,20
573.00,20
572.00,19
571.00,19
570.00,18
569.00,18
568.00,17
567.00,16
566.00,16
565.00,15
564.00,15
563.00,14
562.00,14
561.00,14
560.00,14
559.00,13
558.00,13
557.00,12
556.00,11
555.00,11
554.00,11
553.00,12
552.00,13
551.00,14
550.00,14
549.00,14
548.00,13
547.00,12
546.00,11
545.00,10
544.00,10
543.00,10
542.00,9
541.00,9
540.00,9
539.00,10
538.00,10
537.00,11
536.00,11
535.00,11
534.00,10
533.00,9
532.00,8
531.00,8
530.00,7
529.00,6
528.00,6
527.00,5
526.00,5
525.00,7
524.00,10
523.00,12
522.00,14
521.00,13
520.00,9
519.00,6
518.00,2
517.00,-2
516.00,-1
515.00,1
514.00,2
513.00,4
512.00,6
511.00,6
510.00,5
509.00,5
508.00,4
507.00,3
506.00,3
505.00,2
504.00,2
503.00,1
502.00,1
501.00,-0
500.00,-1
499.00,-1
498.00,-2
497.00,-3
496.00,-4
495.00,-5
494.00,-6
493.00,-7
492.00,-7
491.00,-8
490.00,-9
489.00,-9
488.00,-10
487.00,-9
486.00,-8
485.00,-6
484.00,-5
483.00,-4
482.00,-3
481.00,-3
480.00,-3
479.00,-3
478.00,-2
477.00,1
476.00,3
475.00,5
474.00,8
473.00,9
472.00,10
471.00,11
470.00,12
469.00,13
468.00,15
467.00,17
466.00,20
465.00,22
464.00,25
463.00,26
462.00,26
461.00,26
460.00,26
459.00,26
458.00,27
457.00,29
456.00,30
455.00,31
454.00,33
453.00,34
452.00,34
451.00,35
450.00,36
449.00,37
448.00,37
447.00,38
446.00,38
445.00,38
444.00,39
443.00,41
442.00,44
441.00,46
440.00,48
439.00,49
438.00,48
437.00,48
436.00,47
435.00,47
434.00,47
433.00,47
432.00,47
431.00,48
430.00,48
429.00,48
428.00,49
427.00,50
426.00,51
425.00,51
424.00,52
423.00,53
422.00,53
421.00,54
420.00,54
419.00,55
418.00,55
417.00,55
416.00,55
415.00,56
414.00,56
413.00,57
412.00,58
411.00,58
410.00,59
409.00,59
408.00,59
407.00,60
406.00,60
405.00,60
404.00,60
403.00,60
402.00,59
401.00,59
400.00,59
399.00,60
398.00,60
397.00,60
396.00,60
395.00,60
394.00,59
393.00,57
392.00,56
391.00,55
390.00,54
389.00,53
388.00,52
387.00,52
386.00,51
385.00,48
384.00,45
383.00,41
382.00,38
381.00,34
380.00,32
379.00,31
378.00,29
377.00,28
376.00,27
375.00,25
374.00,23
373.00,21
372.00,19
371.00,17
370.00,16
369.00,15
368.00,14
367.00,13
366.00,12
365.00,13
364.00,14
363.00,16
362.00,17
361.00,18
360.00,16
359.00,14
358.00,11
357.00,9
356.00,7
355.00,7
354.00,9
353.00,10
352.00,12
351.00,13
350.00,13
349.00,13
348.00,13
347.00,12
346.00,12
345.00,12
344.00,12
343.00,11
342.00,11
341.00,11
340.00,14
339.00,17
338.00,20
337.00,23
336.00,26
335.00,27
334.00,28
333.00,29
332.00,29
331.00,30
330.00,30
329.00,30
328.00,30
327.00,30
326.00,30
325.00,30
324.00,29
323.00,29
322.00,28
321.00,28
320.00,27
319.00,27
318.00,26
317.00,25
316.00,25
315.00,24
314.00,24
313.00,24
312.00,24
311.00,24
310.00,24
309.00,24
308.00,24
307.00,24
306.00,24
305.00,24
304.00,23
303.00,23
302.00,22
301.00,22
300.00,22
299.00,21
298.00,21
297.00,21
296.00,20
295.00,20
294.00,19
293.00,19
292.00,18
291.00,18
290.00,18
289.00,17
288.00,17
287.00,16
286.00,16
285.00,14
284.00,13
283.00,12
282.00,11
281.00,9
280.00,7
279.00,4
278.00,1
277.00,-1
276.00,-4
275.00,-5
274.00,-6
273.00,-6
272.00,-7
271.00,-7
270.00,-7
269.00,-6
268.00,-5
267.00,-4
266.00,-3
265.00,-2
264.00,0
263.00,2
262.00,3
261.00,5
260.00,5
259.00,5
258.00,5
257.00,5
256.00,5
255.00,5
254.00,6
253.00,6
252.00,7
251.00,8
250.00,8
249.00,9
248.00,10
247.00,11
246.00,12
245.00,13
244.00,13
243.00,14
242.00,14
241.00,14
240.00,14
239.00,14
238.00,14
237.00,13
236.00,13
235.00,13
234.00,13
233.00,13
232.00,13
231.00,13
230.00,14
229.00,13
228.00,13
227.00,13
226.00,13
225.00,12
224.00,12
223.00,12
222.00,11
221.00,11
220.00,11
219.00,11
218.00,11
217.00,11
216.00,11
215.00,11
214.00,10
213.00,10
212.00,9
211.00,9
210.00,8
209.00,8
208.00,8
207.00,8
206.00,8
205.00,8
204.00,8
203.00,9
202.00,9
201.00,10
200.00,11
199.00,11
198.00,11
197.00,11
196.00,11
195.00,10
194.00,10
193.00,9
192.00,9
191.00,8
190.00,8
189.00,7
188.00,8
187.00,8
186.00,8
185.00,8
184.00,9
183.00,9
182.00,9
181.00,9
180.00,9
179.00,9
178.00,8
177.00,8
176.00,8
175.00,7
174.00,7
173.00,6
172.00,5
171.00,4
170.00,4
169.00,3
168.00,2
167.00,2
166.00,1
165.00,1
164.00,1
163.00,2
162.00,4
161.00,7
160.00,10
159.00,13
158.00,15
157.00,15
156.00,14
155.00,13
154.00,12
153.00,12
152.00,11
151.00,10
150.00,10
149.00,9
148.00,9
147.00,8
146.00,7
145.00,5
144.00,4
143.00,3
142.00,2
141.00,3
140.00,3
139.00,4
138.00,4
137.00,5
136.00,5
135.00,4
134.00,4
133.00,4
132.00,4
131.00,4
130.00,3
129.00,3
128.00,2
127.00,2
126.00,3
125.00,4
124.00,5
123.00,6
122.00,7
121.00,8
120.00,9
119.00,10
118.00,11
117.00,13
116.00,14
115.00,16
114.00,19
113.00,21
112.00,23
111.00,25
110.00,26
109.00,27
108.00,28
107.00,29
106.00,30
105.00,32
104.00,33
103.00,35
102.00,37
101.00,35
100.00,34
