Created as New Dataset,
Raman Shift / cm-1,INT
3200.00,34
3199.00,34
3198.00,33
3197.00,59
3196.00,103
3195.00,113
3194.00,121
3193.00,163
3192.00,171
3191.00,126
3190.00,110
3189.00,110
3188.00,109
3187.00,109
3186.00,108
3185.00,108
3184.00,110
3183.00,166
3182.00,233
3181.00,245
3180.00,259
3179.00,298
3178.00,293
3177.00,251
3176.00,209
3175.00,169
3174.00,130
3173.00,90
3172.00,50
3171.00,54
3170.00,91
3169.00,99
3168.00,99
3167.00,98
3166.00,120
3165.00,192
3164.00,224
3163.00,221
3162.00,194
3161.00,153
3160.00,86
3159.00,26
3158.00,-9
3157.00,-27
3156.00,-26
3155.00,-3
3154.00,22
3153.00,-26
3152.00,-65
3151.00,-9
3150.00,32
3149.00,32
3148.00,122
3147.00,277
3146.00,360
3145.00,464
3144.00,849
3143.00,1060
3142.00,668
3141.00,411
3140.00,405
3139.00,310
3138.00,162
3137.00,15
3136.00,-108
3135.00,-124
3134.00,-55
3133.00,187
3132.00,332
3131.00,330
3130.00,278
3129.00,199
3128.00,177
3127.00,176
3126.00,175
3125.00,167
3124.00,141
3123.00,134
3122.00,158
3121.00,142
3120.00,89
3119.00,55
3118.00,31
3117.00,26
3116.00,26
3115.00,26
3114.00,26
3113.00,25
3112.00,25
3111.00,25
3110.00,23
3109.00,21
3108.00,21
3107.00,20
3106.00,0
3105.00,-22
3104.00,-45
3103.00,-62
3102.00,-63
3101.00,-63
3100.00,-62
3099.00,-27
3098.00,39
3097.00,33
3096.00,-9
3095.00,-20
3094.00,-13
3093.00,43
3092.00,96
3091.00,100
3090.00,81
3089.00,19
3088.00,-20
3087.00,-21
3086.00,12
3085.00,74
3084.00,95
3083.00,95
3082.00,94
3081.00,88
3080.00,37
3079.00,-18
3078.00,-42
3077.00,-57
3076.00,-59
3075.00,-40
3074.00,17
3073.00,59
3072.00,78
3071.00,107
3070.00,145
3069.00,182
3068.00,216
3067.00,212
3066.00,192
3065.00,172
3064.00,149
3063.00,98
3062.00,51
3061.00,46
3060.00,41
3059.00,24
3058.00,11
3057.00,10
3056.00,16
3055.00,33
3054.00,50
3053.00,67
3052.00,65
3051.00,48
3050.00,72
3049.00,122
3048.00,136
3047.00,135
3046.00,134
3045.00,132
3044.00,118
3043.00,104
3042.00,115
3041.00,121
3040.00,79
3039.00,36
3038.00,17
3037.00,8
3036.00,22
3035.00,33
3034.00,33
3033.00,32
3032.00,32
3031.00,32
3030.00,31
3029.00,57
3028.00,118
3027.00,132
3026.00,101
3025.00,94
3024.00,110
3023.00,223
3022.00,391
3021.00,367
3020.00,238
3019.00,195
3018.00,200
3017.00,333
3016.00,499
3015.00,435
3014.00,302
3013.00,290
3012.00,315
3011.00,330
3010.00,342
3009.00,354
3008.00,365
3007.00,366
3006.00,364
3005.00,361
3004.00,357
3003.00,344
3002.00,330
3001.00,327
3000.00,329
2999.00,351
2998.00,366
2997.00,343
2996.00,320
2995.00,316
2994.00,309
2993.00,285
2992.00,256
2991.00,218
2990.00,186
2989.00,182
2988.00,181
2987.00,180
2986.00,179
2985.00,178
2984.00,179
2983.00,189
2982.00,198
2981.00,198
2980.00,192
2979.00,169
2978.00,150
2977.00,147
2976.00,148
2975.00,158
2974.00,167
2973.00,167
2972.00,167
2971.00,177
2970.00,188
2969.00,209
2968.00,226
2967.00,226
2966.00,232
2965.00,271
2964.00,307
2963.00,310
2962.00,309
2961.00,316
2960.00,327
2959.00,354
2958.00,382
2957.00,394
2956.00,402
2955.00,410
2954.00,418
2953.00,435
2952.00,452
2951.00,453
2950.00,450
2949.00,447
2948.00,445
2947.00,442
2946.00,440
2945.00,437
2944.00,435
2943.00,408
2942.00,368
2941.00,351
2940.00,349
2939.00,346
2938.00,343
2937.00,341
2936.00,340
2935.00,312
2934.00,253
2933.00,211
2932.00,191
2931.00,171
2930.00,151
2929.00,146
2928.00,170
2927.00,190
2926.00,190
2925.00,190
2924.00,197
2923.00,203
2922.00,202
2921.00,204
2920.00,224
2919.00,246
2918.00,249
2917.00,247
2916.00,233
2915.00,214
2914.00,178
2913.00,136
2912.00,125
2911.00,133
2910.00,145
2909.00,161
2908.00,164
2907.00,154
2906.00,141
2905.00,124
2904.00,112
2903.00,111
2902.00,110
2901.00,109
2900.00,105
2899.00,90
2898.00,76
2897.00,87
2896.00,101
2895.00,116
2894.00,130
2893.00,139
2892.00,146
2891.00,153
2890.00,160
2889.00,174
2888.00,195
2887.00,189
2886.00,144
2885.00,109
2884.00,100
2883.00,93
2882.00,91
2881.00,86
2880.00,52
2879.00,18
2878.00,12
2877.00,12
2876.00,38
2875.00,72
2874.00,93
2873.00,106
2872.00,106
2871.00,91
2870.00,84
2869.00,90
2868.00,94
2867.00,93
2866.00,90
2865.00,77
2864.00,64
2863.00,61
2862.00,60
2861.00,59
2860.00,58
2859.00,57
2858.00,57
2857.00,53
2856.00,45
2855.00,43
2854.00,48
2853.00,55
2852.00,67
2851.00,80
2850.00,97
2849.00,114
2848.00,112
2847.00,106
2846.00,110
2845.00,122
2844.00,124
2843.00,116
2842.00,107
2841.00,94
2840.00,83
2839.00,82
2838.00,82
2837.00,86
2836.00,89
2835.00,77
2834.00,59
2833.00,47
2832.00,41
2831.00,43
2830.00,60
2829.00,74
2828.00,80
2827.00,83
2826.00,78
2825.00,72
2824.00,74
2823.00,78
2822.00,80
2821.00,79
2820.00,78
2819.00,77
2818.00,71
2817.00,55
2816.00,39
2815.00,32
2814.00,26
2813.00,28
2812.00,33
2811.00,35
2810.00,34
2809.00,35
2808.00,40
2807.00,43
2806.00,43
2805.00,43
2804.00,51
2803.00,60
2802.00,59
2801.00,53
2800.00,55
2799.00,64
2798.00,71
2797.00,70
2796.00,71
2795.00,79
2794.00,87
2793.00,85
2792.00,79
2791.00,79
2790.00,83
2789.00,84
2788.00,78
2787.00,74
2786.00,77
2785.00,80
2784.00,81
2783.00,80
2782.00,76
2781.00,71
2780.00,62
2779.00,47
2778.00,37
2777.00,44
2776.00,51
2775.00,41
2774.00,26
2773.00,19
2772.00,18
2771.00,21
2770.00,29
2769.00,37
2768.00,41
2767.00,45
2766.00,52
2765.00,61
2764.00,66
2763.00,70
2762.00,71
2761.00,66
2760.00,60
2759.00,51
2758.00,42
2757.00,36
2756.00,30
2755.00,27
2754.00,26
2753.00,24
2752.00,15
2751.00,6
2750.00,-3
2749.00,-12
2748.00,-9
2747.00,3
2746.00,7
2745.00,-6
2744.00,-15
2743.00,-3
2742.00,13
2741.00,23
2740.00,31
2739.00,40
2738.00,51
2737.00,65
2736.00,87
2735.00,109
2734.00,104
2733.00,91
2732.00,84
2731.00,83
2730.00,81
2729.00,72
2728.00,64
2727.00,62
2726.00,61
2725.00,69
2724.00,83
2723.00,93
2722.00,93
2721.00,91
2720.00,87
2719.00,83
2718.00,80
2717.00,80
2716.00,78
2715.00,73
2714.00,67
2713.00,57
2712.00,45
2711.00,35
2710.00,27
2709.00,21
2708.00,21
2707.00,20
2706.00,19
2705.00,19
2704.00,29
2703.00,46
2702.00,61
2701.00,72
2700.00,81
2699.00,81
2698.00,80
2697.00,75
2696.00,67
2695.00,60
2694.00,55
2693.00,51
2692.00,47
2691.00,43
2690.00,42
2689.00,45
2688.00,46
2687.00,43
2686.00,38
2685.00,34
2684.00,30
2683.00,28
2682.00,27
2681.00,28
2680.00,40
2679.00,52
2678.00,51
2677.00,44
2676.00,38
2675.00,34
2674.00,30
2673.00,29
2672.00,28
2671.00,29
2670.00,32
2669.00,34
2668.00,36
2667.00,39
2666.00,41
2665.00,44
2664.00,45
2663.00,44
2662.00,45
2661.00,53
2660.00,61
2659.00,67
2658.00,70
2657.00,71
2656.00,66
2655.00,60
2654.00,48
2653.00,35
2652.00,31
2651.00,40
2650.00,47
2649.00,47
2648.00,46
2647.00,55
2646.00,69
2645.00,79
2644.00,79
2643.00,78
2642.00,75
2641.00,71
2640.00,60
2639.00,39
2638.00,20
2637.00,17
2636.00,16
2635.00,16
2634.00,18
2633.00,20
2632.00,19
2631.00,18
2630.00,23
2629.00,31
2628.00,37
2627.00,39
2626.00,41
2625.00,41
2624.00,40
2623.00,45
2622.00,57
2621.00,67
2620.00,62
2619.00,53
2618.00,48
2617.00,47
2616.00,47
2615.00,52
2614.00,56
2613.00,56
2612.00,52
2611.00,48
2610.00,42
2609.00,36
2608.00,34
2607.00,33
2606.00,33
2605.00,35
2604.00,37
2603.00,36
2602.00,35
2601.00,35
2600.00,34
2599.00,33
2598.00,28
2597.00,22
2596.00,21
2595.00,25
2594.00,28
2593.00,23
2592.00,17
2591.00,7
2590.00,-8
2589.00,-20
2588.00,-11
2587.00,0
2586.00,3
2585.00,-3
2584.00,-12
2583.00,-39
2582.00,-68
2581.00,-71
2580.00,-52
2579.00,-36
2578.00,-28
2577.00,-22
2576.00,-32
2575.00,-54
2574.00,-68
2573.00,-51
2572.00,-30
2571.00,-7
2570.00,21
2569.00,41
2568.00,36
2567.00,28
2566.00,27
2565.00,31
2564.00,34
2563.00,33
2562.00,33
2561.00,29
2560.00,24
2559.00,19
2558.00,16
2557.00,12
2556.00,16
2555.00,24
2554.00,30
2553.00,22
2552.00,14
2551.00,11
2550.00,15
2549.00,18
2548.00,17
2547.00,16
2546.00,16
2545.00,15
2544.00,14
2543.00,17
2542.00,21
2541.00,24
2540.00,27
2539.00,30
2538.00,31
2537.00,30
2536.00,30
2535.00,31
2534.00,33
2533.00,34
2532.00,35
2531.00,36
2530.00,35
2529.00,35
2528.00,34
2527.00,33
2526.00,31
2525.00,25
2524.00,18
2523.00,14
2522.00,11
2521.00,9
2520.00,7
2519.00,6
2518.00,6
2517.00,5
2516.00,4
2515.00,3
2514.00,3
2513.00,2
2512.00,1
2511.00,1
2510.00,-3
2509.00,-8
2508.00,-11
2507.00,-10
2506.00,-8
2505.00,-8
2504.00,-9
2503.00,-7
2502.00,6
2501.00,20
2500.00,27
2499.00,26
2498.00,26
2497.00,32
2496.00,38
2495.00,40
2494.00,32
2493.00,24
2492.00,27
2491.00,34
2490.00,38
2489.00,34
2488.00,30
2487.00,29
2486.00,32
2485.00,34
2484.00,34
2483.00,33
2482.00,32
2481.00,31
2480.00,30
2479.00,29
2478.00,29
2477.00,28
2476.00,27
2475.00,27
2474.00,23
2473.00,17
2472.00,12
2471.00,11
2470.00,12
2469.00,13
2468.00,12
2467.00,11
2466.00,9
2465.00,7
2464.00,5
2463.00,2
2462.00,-0
2461.00,-1
2460.00,-2
2459.00,-2
2458.00,-7
2457.00,-13
2456.00,-17
2455.00,-20
2454.00,-22
2453.00,-19
2452.00,-11
2451.00,-4
2450.00,-4
2449.00,-4
2448.00,-4
2447.00,-4
2446.00,-3
2445.00,1
2444.00,7
2443.00,12
2442.00,16
2441.00,20
2440.00,22
2439.00,22
2438.00,21
2437.00,21
2436.00,20
2435.00,19
2434.00,18
2433.00,18
2432.00,16
2431.00,12
2430.00,8
2429.00,7
2428.00,6
2427.00,6
2426.00,7
2425.00,8
2424.00,7
2423.00,5
2422.00,3
2421.00,2
2420.00,1
2419.00,1
2418.00,6
2417.00,12
2416.00,16
2415.00,18
2414.00,21
2413.00,28
2412.00,38
2411.00,44
2410.00,31
2409.00,16
2408.00,2
2407.00,-9
2406.00,-20
2405.00,-17
2404.00,-7
2403.00,1
2402.00,-1
2401.00,-5
2400.00,-7
2399.00,-8
2398.00,-8
2397.00,-3
2396.00,7
2395.00,15
2394.00,16
2393.00,15
2392.00,16
2391.00,19
2390.00,22
2389.00,21
2388.00,15
2387.00,9
2386.00,13
2385.00,19
2384.00,24
2383.00,21
2382.00,17
2381.00,15
2380.00,15
2379.00,16
2378.00,18
2377.00,22
2376.00,25
2375.00,24
2374.00,24
2373.00,23
2372.00,22
2371.00,22
2370.00,21
2369.00,21
2368.00,20
2367.00,18
2366.00,17
2365.00,14
2364.00,7
2363.00,0
2362.00,-5
2361.00,-6
2360.00,-6
2359.00,-5
2358.00,-2
2357.00,2
2356.00,2
2355.00,1
2354.00,1
2353.00,3
2352.00,4
2351.00,5
2350.00,4
2349.00,3
2348.00,2
2347.00,1
2346.00,-1
2345.00,3
2344.00,9
2343.00,13
2342.00,12
2341.00,10
2340.00,6
2339.00,-4
2338.00,-13
2337.00,-18
2336.00,-19
2335.00,-19
2334.00,-11
2333.00,1
2332.00,11
2331.00,8
2330.00,2
2329.00,-2
2328.00,-3
2327.00,-4
2326.00,-4
2325.00,-5
2324.00,-5
2323.00,-6
2322.00,-6
2321.00,-7
2320.00,-8
2319.00,-10
2318.00,-11
2317.00,-7
2316.00,-2
2315.00,2
2314.00,5
2313.00,8
2312.00,11
2311.00,14
2310.00,17
2309.00,17
2308.00,15
2307.00,13
2306.00,13
2305.00,14
2304.00,14
2303.00,10
2302.00,6
2301.00,4
2300.00,4
2299.00,5
2298.00,3
2297.00,-2
2296.00,-7
2295.00,-9
2294.00,-8
2293.00,-7
2292.00,0
2291.00,9
2290.00,17
2289.00,17
2288.00,17
2287.00,16
2286.00,16
2285.00,16
2284.00,15
2283.00,15
2282.00,14
2281.00,13
2280.00,11
2279.00,9
2278.00,8
2277.00,7
2276.00,7
2275.00,5
2274.00,4
2273.00,2
2272.00,1
2271.00,1
2270.00,0
2269.00,-0
2268.00,-1
2267.00,-0
2266.00,3
2265.00,6
2264.00,8
2263.00,9
2262.00,10
2261.00,11
2260.00,13
2259.00,15
2258.00,13
2257.00,10
2256.00,7
2255.00,8
2254.00,10
2253.00,11
2252.00,10
2251.00,10
2250.00,10
2249.00,11
2248.00,12
2247.00,10
2246.00,2
2245.00,-7
2244.00,-10
2243.00,-9
2242.00,-9
2241.00,-9
2240.00,-11
2239.00,-12
2238.00,-8
2237.00,-3
2236.00,1
2235.00,1
2234.00,-0
2233.00,-2
2232.00,-4
2231.00,-5
2230.00,-7
2229.00,-7
2228.00,-8
2227.00,-8
2226.00,-5
2225.00,-2
2224.00,-2
2223.00,-6
2222.00,-11
2221.00,-15
2220.00,-18
2219.00,-21
2218.00,-20
2217.00,-16
2216.00,-12
2215.00,-12
2214.00,-14
2213.00,-16
2212.00,-10
2211.00,0
2210.00,10
2209.00,15
2208.00,17
2207.00,20
2206.00,20
2205.00,19
2204.00,19
2203.00,18
2202.00,18
2201.00,17
2200.00,15
2199.00,12
2198.00,11
2197.00,12
2196.00,14
2195.00,15
2194.00,14
2193.00,14
2192.00,13
2191.00,14
2190.00,14
2189.00,14
2188.00,14
2187.00,14
2186.00,13
2185.00,13
2184.00,12
2183.00,12
2182.00,12
2181.00,13
2180.00,14
2179.00,17
2178.00,19
2177.00,20
2176.00,20
2175.00,19
2174.00,19
2173.00,20
2172.00,21
2171.00,17
2170.00,12
2169.00,6
2168.00,4
2167.00,4
2166.00,3
2165.00,-1
2164.00,-7
2163.00,-12
2162.00,-12
2161.00,-10
2160.00,-9
2159.00,-10
2158.00,-12
2157.00,-13
2156.00,-10
2155.00,-5
2154.00,-1
2153.00,-4
2152.00,-8
2151.00,-11
2150.00,-11
2149.00,-11
2148.00,-10
2147.00,-9
2146.00,-9
2145.00,-8
2144.00,-5
2143.00,-2
2142.00,1
2141.00,1
2140.00,-0
2139.00,-1
2138.00,-2
2137.00,-3
2136.00,-4
2135.00,-3
2134.00,-2
2133.00,-1
2132.00,-2
2131.00,-3
2130.00,-4
2129.00,-1
2128.00,4
2127.00,7
2126.00,3
2125.00,-2
2124.00,-6
2123.00,-7
2122.00,-7
2121.00,-7
2120.00,-3
2119.00,1
2118.00,5
2117.00,5
2116.00,5
2115.00,4
2114.00,4
2113.00,2
2112.00,2
2111.00,7
2110.00,12
2109.00,17
2108.00,18
2107.00,19
2106.00,19
2105.00,21
2104.00,23
2103.00,25
2102.00,24
2101.00,22
2100.00,20
2099.00,18
2098.00,17
2097.00,15
2096.00,13
2095.00,12
2094.00,10
2093.00,8
2092.00,7
2091.00,6
2090.00,12
2089.00,21
2088.00,30
2087.00,33
2086.00,33
2085.00,33
2084.00,31
2083.00,28
2082.00,25
2081.00,22
2080.00,19
2079.00,16
2078.00,15
2077.00,15
2076.00,16
2075.00,16
2074.00,13
2073.00,11
2072.00,9
2071.00,8
2070.00,6
2069.00,7
2068.00,11
2067.00,16
2066.00,22
2065.00,29
2064.00,36
2063.00,41
2062.00,39
2061.00,37
2060.00,34
2059.00,26
2058.00,18
2057.00,10
2056.00,9
2055.00,7
2054.00,6
2053.00,4
2052.00,1
2051.00,-2
2050.00,-4
2049.00,-5
2048.00,-6
2047.00,-7
2046.00,-9
2045.00,-11
2044.00,-7
2043.00,-2
2042.00,4
2041.00,7
2040.00,7
2039.00,7
2038.00,15
2037.00,31
2036.00,47
2035.00,56
2034.00,55
2033.00,53
2032.00,46
2031.00,25
2030.00,4
2029.00,-9
2028.00,7
2027.00,25
2026.00,40
2025.00,37
2024.00,32
2023.00,27
2022.00,22
2021.00,17
2020.00,13
2019.00,14
2018.00,17
2017.00,20
2016.00,20
2015.00,19
2014.00,17
2013.00,18
2012.00,21
2011.00,23
2010.00,24
2009.00,22
2008.00,21
2007.00,20
2006.00,19
2005.00,18
2004.00,18
2003.00,19
2002.00,20
2001.00,22
2000.00,22
1999.00,22
1998.00,21
1997.00,21
1996.00,20
1995.00,19
1994.00,19
1993.00,18
1992.00,18
1991.00,19
1990.00,21
1989.00,23
1988.00,26
1987.00,29
1986.00,32
1985.00,34
1984.00,32
1983.00,29
1982.00,28
1981.00,28
1980.00,29
1979.00,30
1978.00,27
1977.00,24
1976.00,20
1975.00,18
1974.00,17
1973.00,16
1972.00,14
1971.00,12
1970.00,11
1969.00,9
1968.00,9
1967.00,8
1966.00,8
1965.00,7
1964.00,6
1963.00,6
1962.00,6
1961.00,6
1960.00,7
1959.00,11
1958.00,16
1957.00,21
1956.00,23
1955.00,25
1954.00,26
1953.00,27
1952.00,27
1951.00,26
1950.00,27
1949.00,29
1948.00,31
1947.00,32
1946.00,31
1945.00,29
1944.00,28
1943.00,30
1942.00,32
1941.00,35
1940.00,36
1939.00,35
1938.00,35
1937.00,34
1936.00,33
1935.00,32
1934.00,32
1933.00,30
1932.00,29
1931.00,28
1930.00,27
1929.00,25
1928.00,24
1927.00,24
1926.00,24
1925.00,24
1924.00,24
1923.00,24
1922.00,23
1921.00,23
1920.00,24
1919.00,24
1918.00,24
1917.00,22
1916.00,20
1915.00,18
1914.00,18
1913.00,19
1912.00,20
1911.00,21
1910.00,21
1909.00,21
1908.00,21
1907.00,20
1906.00,19
1905.00,17
1904.00,13
1903.00,7
1902.00,2
1901.00,5
1900.00,10
1899.00,14
1898.00,16
1897.00,15
1896.00,14
1895.00,13
1894.00,13
1893.00,12
1892.00,12
1891.00,15
1890.00,18
1889.00,21
1888.00,21
1887.00,20
1886.00,19
1885.00,19
1884.00,20
1883.00,22
1882.00,23
1881.00,26
1880.00,29
1879.00,32
1878.00,31
1877.00,29
1876.00,28
1875.00,27
1874.00,27
1873.00,26
1872.00,26
1871.00,26
1870.00,26
1869.00,26
1868.00,26
1867.00,26
1866.00,26
1865.00,26
1864.00,26
1863.00,26
1862.00,28
1861.00,30
1860.00,33
1859.00,45
1858.00,77
1857.00,109
1856.00,140
1855.00,145
1854.00,144
1853.00,142
1852.00,140
1851.00,138
1850.00,137
1849.00,126
1848.00,98
1847.00,69
1846.00,43
1845.00,34
1844.00,28
1843.00,22
1842.00,20
1841.00,19
1840.00,17
1839.00,16
1838.00,16
1837.00,15
1836.00,14
1835.00,14
1834.00,14
1833.00,14
1832.00,18
1831.00,23
1830.00,29
1829.00,34
1828.00,36
1827.00,38
1826.00,39
1825.00,39
1824.00,39
1823.00,38
1822.00,39
1821.00,40
1820.00,41
1819.00,42
1818.00,40
1817.00,38
1816.00,37
1815.00,40
1814.00,43
1813.00,46
1812.00,44
1811.00,39
1810.00,34
1809.00,32
1808.00,35
1807.00,39
1806.00,42
1805.00,42
1804.00,42
1803.00,42
1802.00,42
1801.00,42
1800.00,41
1799.00,41
1798.00,39
1797.00,38
1796.00,37
1795.00,40
1794.00,45
1793.00,50
1792.00,53
1791.00,53
1790.00,53
1789.00,53
1788.00,58
1787.00,62
1786.00,67
1785.00,69
1784.00,69
1783.00,70
1782.00,71
1781.00,73
1780.00,76
1779.00,79
1778.00,80
1777.00,81
1776.00,82
1775.00,82
1774.00,83
1773.00,84
1772.00,84
1771.00,83
1770.00,82
1769.00,82
1768.00,81
1767.00,81
1766.00,80
1765.00,79
1764.00,78
1763.00,77
1762.00,75
1761.00,75
1760.00,75
1759.00,75
1758.00,74
1757.00,73
1756.00,72
1755.00,72
1754.00,71
1753.00,71
1752.00,71
1751.00,71
1750.00,70
1749.00,69
1748.00,68
1747.00,68
1746.00,68
1745.00,67
1744.00,65
1743.00,61
1742.00,58
1741.00,56
1740.00,56
1739.00,56
1738.00,56
1737.00,54
1736.00,53
1735.00,52
1734.00,50
1733.00,49
1732.00,48
1731.00,47
1730.00,47
1729.00,46
1728.00,46
1727.00,45
1726.00,44
1725.00,44
1724.00,44
1723.00,45
1722.00,47
1721.00,48
1720.00,50
1719.00,51
1718.00,52
1717.00,53
1716.00,51
1715.00,50
1714.00,48
1713.00,47
1712.00,46
1711.00,45
1710.00,45
1709.00,46
1708.00,47
1707.00,48
1706.00,51
1705.00,55
1704.00,58
1703.00,60
1702.00,59
1701.00,58
1700.00,58
1699.00,58
1698.00,58
1697.00,58
1696.00,57
1695.00,56
1694.00,55
1693.00,54
1692.00,57
1691.00,60
1690.00,63
1689.00,63
1688.00,61
1687.00,59
1686.00,57
1685.00,56
1684.00,56
1683.00,56
1682.00,55
1681.00,53
1680.00,52
1679.00,51
1678.00,50
1677.00,50
1676.00,50
1675.00,52
1674.00,55
1673.00,58
1672.00,60
1671.00,59
1670.00,58
1669.00,57
1668.00,58
1667.00,61
1666.00,64
1665.00,67
1664.00,67
1663.00,67
1662.00,66
1661.00,65
1660.00,64
1659.00,63
1658.00,62
1657.00,62
1656.00,63
1655.00,63
1654.00,64
1653.00,67
1652.00,71
1651.00,74
1650.00,73
1649.00,71
1648.00,69
1647.00,68
1646.00,66
1645.00,64
1644.00,63
1643.00,61
1642.00,59
1641.00,58
1640.00,56
1639.00,54
1638.00,52
1637.00,51
1636.00,56
1635.00,64
1634.00,72
1633.00,77
1632.00,75
1631.00,73
1630.00,70
1629.00,68
1628.00,66
1627.00,64
1626.00,62
1625.00,59
1624.00,55
1623.00,52
1622.00,50
1621.00,49
1620.00,48
1619.00,46
1618.00,44
1617.00,41
1616.00,38
1615.00,36
1614.00,36
1613.00,35
1612.00,35
1611.00,34
1610.00,33
1609.00,31
1608.00,30
1607.00,30
1606.00,29
1605.00,29
1604.00,28
1603.00,26
1602.00,25
1601.00,26
1600.00,35
1599.00,46
1598.00,57
1597.00,61
1596.00,60
1595.00,58
1594.00,56
1593.00,55
1592.00,53
1591.00,52
1590.00,50
1589.00,48
1588.00,47
1587.00,45
1586.00,47
1585.00,50
1584.00,53
1583.00,54
1582.00,51
1581.00,47
1580.00,43
1579.00,43
1578.00,48
1577.00,52
1576.00,57
1575.00,58
1574.00,59
1573.00,60
1572.00,60
1571.00,60
1570.00,60
1569.00,60
1568.00,61
1567.00,61
1566.00,61
1565.00,61
1564.00,59
1563.00,58
1562.00,56
1561.00,55
1560.00,56
1559.00,56
1558.00,56
1557.00,56
1556.00,56
1555.00,56
1554.00,55
1553.00,53
1552.00,50
1551.00,48
1550.00,46
1549.00,46
1548.00,45
1547.00,44
1546.00,44
1545.00,43
1544.00,42
1543.00,42
1542.00,41
1541.00,40
1540.00,39
1539.00,39
1538.00,41
1537.00,42
1536.00,44
1535.00,45
1534.00,47
1533.00,48
1532.00,49
1531.00,48
1530.00,47
1529.00,47
1528.00,47
1527.00,49
1526.00,51
1525.00,53
1524.00,54
1523.00,54
1522.00,54
1521.00,54
1520.00,52
1519.00,51
1518.00,50
1517.00,49
1516.00,48
1515.00,47
1514.00,46
1513.00,46
1512.00,46
1511.00,46
1510.00,46
1509.00,47
1508.00,47
1507.00,48
1506.00,47
1505.00,46
1504.00,45
1503.00,44
1502.00,44
1501.00,44
1500.00,44
1499.00,44
1498.00,46
1497.00,48
1496.00,50
1495.00,51
1494.00,51
1493.00,51
1492.00,51
1491.00,53
1490.00,55
1489.00,58
1488.00,60
1487.00,61
1486.00,62
1485.00,63
1484.00,63
1483.00,63
1482.00,62
1481.00,61
1480.00,61
1479.00,61
1478.00,61
1477.00,61
1476.00,61
1475.00,61
1474.00,61
1473.00,61
1472.00,65
1471.00,69
1470.00,74
1469.00,77
1468.00,79
1467.00,81
1466.00,83
1465.00,87
1464.00,93
1463.00,99
1462.00,104
1461.00,112
1460.00,120
1459.00,127
1458.00,133
1457.00,132
1456.00,132
1455.00,131
1454.00,131
1453.00,131
1452.00,132
1451.00,132
1450.00,130
1449.00,127
1448.00,124
1447.00,121
1446.00,115
1445.00,109
1444.00,102
1443.00,96
1442.00,92
1441.00,87
1440.00,83
1439.00,80
1438.00,78
1437.00,76
1436.00,74
1435.00,72
1434.00,71
1433.00,69
1432.00,67
1431.00,65
1430.00,63
1429.00,60
1428.00,58
1427.00,57
1426.00,56
1425.00,55
1424.00,54
1423.00,54
1422.00,53
1421.00,53
1420.00,52
1419.00,52
1418.00,51
1417.00,50
1416.00,50
1415.00,49
1414.00,48
1413.00,48
1412.00,48
1411.00,49
1410.00,50
1409.00,52
1408.00,55
1407.00,58
1406.00,61
1405.00,64
1404.00,65
1403.00,66
1402.00,67
1401.00,67
1400.00,66
1399.00,65
1398.00,64
1397.00,63
1396.00,62
1395.00,61
1394.00,60
1393.00,59
1392.00,59
1391.00,58
1390.00,59
1389.00,61
1388.00,64
1387.00,67
1386.00,68
1385.00,69
1384.00,69
1383.00,69
1382.00,69
1381.00,69
1380.00,68
1379.00,68
1378.00,67
1377.00,67
1376.00,67
1375.00,67
1374.00,65
1373.00,64
1372.00,62
1371.00,61
1370.00,59
1369.00,58
1368.00,57
1367.00,57
1366.00,60
1365.00,62
1364.00,65
1363.00,68
1362.00,70
1361.00,72
1360.00,75
1359.00,75
1358.00,74
1357.00,73
1356.00,71
1355.00,70
1354.00,70
1353.00,69
1352.00,68
1351.00,67
1350.00,65
1349.00,63
1348.00,61
1347.00,60
1346.00,59
1345.00,58
1344.00,58
1343.00,57
1342.00,56
1341.00,55
1340.00,54
1339.00,55
1338.00,56
1337.00,57
1336.00,57
1335.00,56
1334.00,54
1333.00,53
1332.00,52
1331.00,51
1330.00,50
1329.00,49
1328.00,49
1327.00,50
1326.00,51
1325.00,52
1324.00,52
1323.00,50
1322.00,49
1321.00,48
1320.00,49
1319.00,51
1318.00,53
1317.00,54
1316.00,54
1315.00,54
1314.00,54
1313.00,54
1312.00,57
1311.00,60
1310.00,63
1309.00,65
1308.00,65
1307.00,64
1306.00,64
1305.00,63
1304.00,63
1303.00,63
1302.00,63
1301.00,62
1300.00,62
1299.00,61
1298.00,60
1297.00,60
1296.00,61
1295.00,62
1294.00,63
1293.00,63
1292.00,61
1291.00,60
1290.00,59
1289.00,56
1288.00,50
1287.00,45
1286.00,40
1285.00,36
1284.00,32
1283.00,28
1282.00,25
1281.00,23
1280.00,23
1279.00,23
1278.00,23
1277.00,22
1276.00,22
1275.00,21
1274.00,20
1273.00,19
1272.00,17
1271.00,15
1270.00,14
1269.00,14
1268.00,16
1267.00,17
1266.00,19
1265.00,20
1264.00,21
1263.00,22
1262.00,23
1261.00,22
1260.00,21
1259.00,19
1258.00,18
1257.00,18
1256.00,17
1255.00,17
1254.00,17
1253.00,17
1252.00,16
1251.00,16
1250.00,16
1249.00,20
1248.00,24
1247.00,29
1246.00,33
1245.00,34
1244.00,33
1243.00,33
1242.00,33
1241.00,33
1240.00,32
1239.00,32
1238.00,32
1237.00,33
1236.00,35
1235.00,36
1234.00,37
1233.00,35
1232.00,32
1231.00,30
1230.00,28
1229.00,26
1228.00,25
1227.00,25
1226.00,24
1225.00,24
1224.00,24
1223.00,23
1222.00,23
1221.00,23
1220.00,22
1219.00,21
1218.00,20
1217.00,19
1216.00,19
1215.00,18
1214.00,17
1213.00,19
1212.00,21
1211.00,23
1210.00,25
1209.00,25
1208.00,24
1207.00,23
1206.00,23
1205.00,25
1204.00,27
1203.00,30
1202.00,32
1201.00,31
1200.00,31
1199.00,30
1198.00,30
1197.00,31
1196.00,33
1195.00,35
1194.00,36
1193.00,36
1192.00,36
1191.00,36
1190.00,36
1189.00,36
1188.00,37
1187.00,37
1186.00,37
1185.00,35
1184.00,33
1183.00,30
1182.00,28
1181.00,26
1180.00,25
1179.00,24
1178.00,23
1177.00,22
1176.00,20
1175.00,18
1174.00,17
1173.00,16
1172.00,16
1171.00,16
1170.00,15
1169.00,14
1168.00,13
1167.00,12
1166.00,11
1165.00,11
1164.00,12
1163.00,13
1162.00,14
1161.00,13
1160.00,12
1159.00,11
1158.00,9
1157.00,8
1156.00,7
1155.00,6
1154.00,6
1153.00,5
1152.00,5
1151.00,5
1150.00,5
1149.00,6
1148.00,10
1147.00,15
1146.00,19
1145.00,22
1144.00,24
1143.00,25
1142.00,27
1141.00,29
1140.00,33
1139.00,39
1138.00,44
1137.00,48
1136.00,48
1135.00,47
1134.00,46
1133.00,46
1132.00,46
1131.00,46
1130.00,47
1129.00,47
1128.00,47
1127.00,46
1126.00,45
1125.00,44
1124.00,43
1123.00,42
1122.00,41
1121.00,40
1120.00,39
1119.00,38
1118.00,38
1117.00,37
1116.00,36
1115.00,34
1114.00,33
1113.00,31
1112.00,30
1111.00,30
1110.00,29
1109.00,29
1108.00,29
1107.00,29
1106.00,29
1105.00,30
1104.00,30
1103.00,29
1102.00,28
1101.00,26
1100.00,25
1099.00,25
1098.00,26
1097.00,26
1096.00,26
1095.00,24
1094.00,21
1093.00,19
1092.00,17
1091.00,16
1090.00,17
1089.00,17
1088.00,18
1087.00,18
1086.00,17
1085.00,16
1084.00,16
1083.00,14
1082.00,11
1081.00,8
1080.00,6
1079.00,3
1078.00,1
1077.00,-1
1076.00,-3
1075.00,-4
1074.00,-2
1073.00,1
1072.00,3
1071.00,5
1070.00,5
1069.00,3
1068.00,2
1067.00,1
1066.00,0
1065.00,-1
1064.00,-2
1063.00,-3
1062.00,-2
1061.00,2
1060.00,5
1059.00,9
1058.00,13
1057.00,17
1056.00,22
1055.00,26
1054.00,30
1053.00,30
1052.00,30
1051.00,30
1050.00,30
1049.00,32
1048.00,34
1047.00,37
1046.00,39
1045.00,39
1044.00,38
1043.00,38
1042.00,38
1041.00,38
1040.00,39
1039.00,40
1038.00,42
1037.00,41
1036.00,37
1035.00,33
1034.00,30
1033.00,27
1032.00,25
1031.00,23
1030.00,22
1029.00,20
1028.00,19
1027.00,17
1026.00,16
1025.00,14
1024.00,13
1023.00,13
1022.00,12
1021.00,11
1020.00,11
1019.00,10
1018.00,9
1017.00,8
1016.00,7
1015.00,5
1014.00,4
1013.00,3
1012.00,2
1011.00,1
1010.00,-1
1009.00,-2
1008.00,-4
1007.00,-5
1006.00,-5
1005.00,-6
1004.00,-6
1003.00,-7
1002.00,-8
1001.00,-9
1000.00,-10
999.00,-11
998.00,-12
997.00,-13
996.00,-14
995.00,-15
994.00,-16
993.00,-17
992.00,-19
991.00,-20
990.00,-20
989.00,-20
988.00,-20
987.00,-20
986.00,-20
985.00,-20
984.00,-20
983.00,-21
982.00,-21
981.00,-21
980.00,-21
979.00,-22
978.00,-22
977.00,-21
976.00,-19
975.00,-18
974.00,-17
973.00,-17
972.00,-18
971.00,-18
970.00,-19
969.00,-18
968.00,-13
967.00,-10
966.00,-5
965.00,-2
964.00,-2
963.00,-2
962.00,-1
961.00,-1
960.00,-2
959.00,-3
958.00,-4
957.00,-5
956.00,-6
955.00,-6
954.00,-7
953.00,-8
952.00,-8
951.00,-9
950.00,-9
949.00,-9
948.00,-9
947.00,-10
946.00,-11
945.00,-12
944.00,-13
943.00,-14
942.00,-15
941.00,-16
940.00,-17
939.00,-17
938.00,-16
937.00,-15
936.00,-14
935.00,-12
934.00,-11
933.00,-9
932.00,-7
931.00,-5
930.00,-5
929.00,-5
928.00,-6
927.00,-6
926.00,-5
925.00,-2
924.00,0
923.00,3
922.00,6
921.00,5
920.00,4
919.00,4
918.00,3
917.00,3
916.00,3
915.00,2
914.00,2
913.00,3
912.00,3
911.00,4
910.00,5
909.00,5
908.00,4
907.00,3
906.00,2
905.00,0
904.00,-1
903.00,-2
902.00,-3
901.00,-4
900.00,-3
899.00,-0
898.00,3
897.00,6
896.00,8
895.00,9
894.00,9
893.00,8
892.00,8
891.00,8
890.00,8
889.00,7
888.00,6
887.00,10
886.00,24
885.00,37
884.00,51
883.00,64
882.00,69
881.00,73
880.00,77
879.00,81
878.00,82
877.00,80
876.00,78
875.00,77
874.00,76
873.00,78
872.00,79
871.00,81
870.00,83
869.00,82
868.00,81
867.00,80
866.00,79
865.00,77
864.00,73
863.00,69
862.00,65
861.00,60
860.00,53
859.00,46
858.00,38
857.00,31
856.00,27
855.00,25
854.00,23
853.00,21
852.00,20
851.00,19
850.00,18
849.00,17
848.00,16
847.00,14
846.00,12
845.00,9
844.00,7
843.00,5
842.00,5
841.00,4
840.00,3
839.00,3
838.00,3
837.00,4
836.00,6
835.00,7
834.00,7
833.00,6
832.00,5
831.00,5
830.00,4
829.00,2
828.00,0
827.00,-2
826.00,-3
825.00,-5
824.00,-6
823.00,-7
822.00,-8
821.00,-9
820.00,-10
819.00,-11
818.00,-12
817.00,-14
816.00,-14
815.00,-15
814.00,-16
813.00,-16
812.00,-17
811.00,-16
810.00,-15
809.00,-14
808.00,-14
807.00,-13
806.00,-12
805.00,-11
804.00,-10
803.00,-9
802.00,-5
801.00,-2
800.00,1
799.00,4
798.00,4
797.00,4
796.00,3
795.00,3
794.00,2
793.00,3
792.00,3
791.00,3
790.00,3
789.00,3
788.00,2
787.00,0
786.00,-1
785.00,-2
784.00,-3
783.00,-4
782.00,-5
781.00,-5
780.00,-4
779.00,-1
778.00,2
777.00,4
776.00,5
775.00,5
774.00,5
773.00,5
772.00,5
771.00,8
770.00,10
769.00,13
768.00,16
767.00,18
766.00,18
765.00,19
764.00,20
763.00,20
762.00,20
761.00,19
760.00,18
759.00,17
758.00,17
757.00,18
756.00,19
755.00,20
754.00,21
753.00,21
752.00,22
751.00,22
750.00,23
749.00,23
748.00,24
747.00,25
746.00,26
745.00,27
744.00,26
743.00,25
742.00,24
741.00,23
740.00,23
739.00,22
738.00,22
737.00,21
736.00,21
735.00,20
734.00,19
733.00,19
732.00,18
731.00,17
730.00,16
729.00,15
728.00,14
727.00,13
726.00,12
725.00,12
724.00,12
723.00,12
722.00,12
721.00,11
720.00,10
719.00,10
718.00,9
717.00,8
716.00,8
715.00,8
714.00,7
713.00,7
712.00,8
711.00,10
710.00,11
709.00,12
708.00,13
707.00,12
706.00,10
705.00,9
704.00,9
703.00,11
702.00,15
701.00,18
700.00,21
699.00,23
698.00,23
697.00,22
696.00,21
695.00,20
694.00,19
693.00,18
692.00,17
691.00,15
690.00,15
689.00,17
688.00,19
687.00,21
686.00,23
685.00,25
684.00,26
683.00,28
682.00,29
681.00,31
680.00,30
679.00,29
678.00,28
677.00,27
676.00,25
675.00,23
674.00,21
673.00,19
672.00,17
671.00,17
670.00,17
669.00,18
668.00,18
667.00,19
666.00,22
665.00,25
664.00,28
663.00,31
662.00,32
661.00,31
660.00,31
659.00,30
658.00,30
657.00,29
656.00,29
655.00,29
654.00,29
653.00,29
652.00,29
651.00,29
650.00,29
649.00,29
648.00,32
647.00,36
646.00,40
645.00,45
644.00,48
643.00,48
642.00,48
641.00,47
640.00,46
639.00,46
638.00,45
637.00,45
636.00,44
635.00,43
634.00,43
633.00,43
632.00,43
631.00,42
630.00,42
629.00,42
628.00,42
627.00,41
626.00,41
625.00,43
624.00,46
623.00,50
622.00,54
621.00,58
620.00,59
619.00,59
618.00,59
617.00,59
616.00,59
615.00,58
614.00,57
613.00,56
612.00,55
611.00,55
610.00,54
609.00,54
608.00,54
607.00,53
606.00,53
605.00,52
604.00,52
603.00,51
602.00,51
601.00,50
600.00,50
599.00,49
598.00,48
597.00,47
596.00,47
595.00,46
594.00,46
593.00,45
592.00,46
591.00,47
590.00,47
589.00,48
588.00,49
587.00,48
586.00,47
585.00,46
584.00,45
583.00,44
582.00,43
581.00,43
580.00,42
579.00,41
578.00,41
577.00,40
576.00,39
575.00,39
574.00,38
573.00,38
572.00,38
571.00,38
570.00,37
569.00,38
568.00,40
567.00,42
566.00,45
565.00,47
564.00,49
563.00,49
562.00,49
561.00,50
560.00,50
559.00,51
558.00,51
557.00,52
556.00,52
555.00,53
554.00,52
553.00,52
552.00,51
551.00,50
550.00,50
549.00,50
548.00,51
547.00,51
546.00,52
545.00,52
544.00,51
543.00,51
542.00,50
541.00,49
540.00,50
539.00,50
538.00,51
537.00,52
536.00,52
535.00,52
534.00,50
533.00,49
532.00,48
531.00,47
530.00,46
529.00,45
528.00,44
527.00,43
526.00,43
525.00,43
524.00,42
523.00,42
522.00,43
521.00,42
520.00,41
519.00,40
518.00,39
517.00,38
516.00,37
515.00,38
514.00,38
513.00,38
512.00,38
511.00,38
510.00,37
509.00,36
508.00,36
507.00,35
506.00,34
505.00,33
504.00,32
503.00,31
502.00,30
501.00,29
500.00,29
499.00,28
498.00,27
497.00,28
496.00,30
495.00,32
494.00,33
493.00,35
492.00,37
491.00,38
490.00,39
489.00,41
488.00,42
487.00,40
486.00,39
485.00,37
484.00,35
483.00,33
482.00,32
481.00,31
480.00,30
479.00,29
478.00,30
477.00,33
476.00,37
475.00,40
474.00,43
473.00,45
472.00,44
471.00,44
470.00,43
469.00,43
468.00,42
467.00,42
466.00,42
465.00,42
464.00,42
463.00,46
462.00,53
461.00,59
460.00,65
459.00,71
458.00,71
457.00,70
456.00,70
455.00,70
454.00,69
453.00,68
452.00,67
451.00,66
450.00,65
449.00,64
448.00,64
447.00,64
446.00,64
445.00,64
444.00,64
443.00,64
442.00,64
441.00,64
440.00,64
439.00,64
438.00,63
437.00,63
436.00,62
435.00,61
434.00,63
433.00,67
432.00,71
431.00,74
430.00,78
429.00,79
428.00,78
427.00,78
426.00,78
425.00,78
424.00,77
423.00,77
422.00,76
421.00,75
420.00,75
419.00,74
418.00,74
417.00,74
416.00,73
415.00,73
414.00,73
413.00,74
412.00,74
411.00,74
410.00,74
409.00,74
408.00,73
407.00,72
406.00,72
405.00,72
404.00,73
403.00,75
402.00,76
401.00,78
400.00,79
399.00,79
398.00,80
397.00,80
396.00,80
395.00,80
394.00,82
393.00,83
392.00,84
391.00,85
390.00,85
389.00,82
388.00,80
387.00,77
386.00,75
385.00,74
384.00,75
383.00,76
382.00,76
381.00,77
380.00,75
379.00,72
378.00,69
377.00,66
376.00,63
375.00,62
374.00,60
373.00,59
372.00,58
371.00,56
370.00,55
369.00,53
368.00,52
367.00,51
366.00,49
365.00,49
364.00,48
363.00,48
362.00,47
361.00,47
360.00,46
359.00,45
358.00,44
357.00,43
356.00,43
355.00,44
354.00,45
353.00,46
352.00,48
351.00,49
350.00,49
349.00,48
348.00,48
347.00,47
346.00,47
345.00,47
344.00,46
343.00,46
342.00,45
341.00,45
340.00,46
339.00,46
338.00,47
337.00,48
336.00,49
335.00,52
334.00,56
333.00,59
332.00,63
331.00,65
330.00,65
329.00,63
328.00,62
327.00,61
326.00,60
325.00,59
324.00,57
323.00,56
322.00,55
321.00,54
320.00,53
319.00,53
318.00,53
317.00,52
316.00,52
315.00,53
314.00,54
313.00,54
312.00,55
311.00,56
310.00,55
309.00,55
308.00,54
307.00,54
306.00,53
305.00,53
304.00,53
303.00,53
302.00,53
301.00,53
300.00,53
299.00,53
298.00,52
297.00,52
296.00,51
295.00,52
294.00,52
293.00,52
292.00,53
291.00,53
290.00,52
289.00,50
288.00,49
287.00,47
286.00,46
285.00,44
284.00,43
283.00,41
282.00,40
281.00,38
280.00,37
279.00,35
278.00,33
277.00,31
276.00,29
275.00,28
274.00,27
273.00,26
272.00,25
271.00,24
270.00,23
269.00,22
268.00,21
267.00,20
266.00,19
265.00,20
264.00,23
263.00,25
262.00,28
261.00,30
260.00,32
259.00,33
258.00,35
257.00,36
256.00,38
255.00,39
254.00,38
253.00,38
252.00,38
251.00,38
250.00,38
249.00,38
248.00,37
247.00,36
246.00,36
245.00,36
244.00,37
243.00,38
242.00,38
241.00,39
240.00,40
239.00,40
238.00,39
237.00,39
236.00,39
235.00,38
234.00,37
233.00,36
232.00,36
231.00,35
230.00,34
229.00,31
228.00,29
227.00,27
226.00,25
225.00,22
224.00,22
223.00,21
222.00,21
221.00,20
220.00,20
219.00,20
218.00,21
217.00,21
216.00,22
215.00,22
214.00,22
213.00,21
212.00,20
211.00,20
210.00,19
209.00,19
208.00,18
207.00,18
206.00,18
205.00,18
204.00,18
203.00,18
202.00,18
201.00,18
200.00,19
199.00,18
198.00,18
197.00,17
196.00,16
195.00,16
194.00,15
193.00,15
192.00,15
191.00,15
190.00,15
189.00,15
188.00,16
187.00,16
186.00,17
185.00,17
184.00,18
183.00,17
182.00,17
181.00,16
180.00,15
179.00,14
178.00,14
177.00,15
176.00,16
175.00,16
174.00,17
173.00,17
172.00,17
171.00,16
170.00,16
169.00,15
168.00,15
167.00,15
166.00,15
165.00,15
164.00,15
163.00,16
162.00,15
161.00,15
160.00,15
159.00,15
158.00,15
157.00,14
156.00,13
155.00,13
154.00,12
153.00,11
152.00,10
151.00,8
150.00,7
149.00,6
148.00,5
147.00,3
146.00,1
145.00,-1
144.00,-3
143.00,-5
142.00,-6
141.00,-6
140.00,-6
139.00,-7
138.00,-7
137.00,-7
136.00,-8
135.00,-8
134.00,-9
133.00,-9
132.00,-9
131.00,-8
130.00,-7
129.00,-6
128.00,-5
127.00,-4
126.00,-4
125.00,-4
124.00,-4
123.00,-4
122.00,-4
121.00,-2
120.00,1
119.00,4
118.00,6
117.00,9
116.00,11
115.00,10
114.00,9
113.00,8
112.00,7
111.00,6
110.00,4
109.00,2
108.00,-0
107.00,-2
106.00,-4
105.00,-6
104.00,-7
103.00,-9
102.00,-10
101.00,-12
100.00,-15
