Created as New Dataset,
Raman Shift / cm-1,INT
3200.00,2
3199.00,-43
3198.00,-46
3197.00,-21
3196.00,20
3195.00,29
3194.00,28
3193.00,25
3192.00,41
3191.00,82
3190.00,95
3189.00,102
3188.00,173
3187.00,232
3186.00,229
3185.00,220
3184.00,207
3183.00,143
3182.00,70
3181.00,65
3180.00,69
3179.00,69
3178.00,68
3177.00,68
3176.00,97
3175.00,127
3174.00,129
3173.00,165
3172.00,278
3171.00,282
3170.00,202
3169.00,152
3168.00,117
3167.00,111
3166.00,154
3165.00,295
3164.00,280
3163.00,136
3162.00,68
3161.00,41
3160.00,97
3159.00,109
3158.00,-23
3157.00,-98
3156.00,-100
3155.00,-101
3154.00,-102
3153.00,-103
3152.00,-104
3151.00,-105
3150.00,-106
3149.00,-106
3148.00,-89
3147.00,-47
3146.00,168
3145.00,461
3144.00,872
3143.00,1029
3142.00,434
3141.00,138
3140.00,341
3139.00,358
3138.00,267
3137.00,243
3136.00,232
3135.00,180
3134.00,144
3133.00,167
3132.00,169
3131.00,136
3130.00,106
3129.00,78
3128.00,49
3127.00,24
3126.00,18
3125.00,22
3124.00,45
3123.00,108
3122.00,235
3121.00,265
3120.00,211
3119.00,193
3118.00,188
3117.00,165
3116.00,134
3115.00,84
3114.00,39
3113.00,11
3112.00,5
3111.00,30
3110.00,92
3109.00,175
3108.00,117
3107.00,19
3106.00,36
3105.00,69
3104.00,71
3103.00,68
3102.00,66
3101.00,64
3100.00,62
3099.00,60
3098.00,58
3097.00,56
3096.00,52
3095.00,34
3094.00,21
3093.00,72
3092.00,123
3091.00,126
3090.00,106
3089.00,42
3088.00,10
3087.00,28
3086.00,47
3085.00,66
3084.00,72
3083.00,71
3082.00,69
3081.00,73
3080.00,120
3079.00,164
3078.00,131
3077.00,102
3076.00,118
3075.00,124
3074.00,103
3073.00,98
3072.00,116
3071.00,143
3070.00,179
3069.00,202
3068.00,216
3067.00,205
3066.00,184
3065.00,178
3064.00,171
3063.00,138
3062.00,105
3061.00,101
3060.00,100
3059.00,98
3058.00,96
3057.00,95
3056.00,99
3055.00,113
3054.00,112
3053.00,93
3052.00,74
3051.00,56
3050.00,58
3049.00,71
3048.00,74
3047.00,73
3046.00,84
3045.00,97
3044.00,99
3043.00,99
3042.00,111
3041.00,120
3040.00,105
3039.00,87
3038.00,68
3037.00,57
3036.00,70
3035.00,80
3034.00,78
3033.00,77
3032.00,75
3031.00,73
3030.00,71
3029.00,83
3028.00,112
3027.00,102
3026.00,55
3025.00,40
3024.00,54
3023.00,157
3022.00,311
3021.00,290
3020.00,176
3019.00,174
3018.00,233
3017.00,360
3016.00,498
3015.00,425
3014.00,288
3013.00,232
3012.00,200
3011.00,158
3010.00,120
3009.00,124
3008.00,135
3007.00,136
3006.00,133
3005.00,131
3004.00,127
3003.00,113
3002.00,101
3001.00,110
3000.00,118
2999.00,118
2998.00,111
2997.00,86
2996.00,69
2995.00,100
2994.00,126
2993.00,116
2992.00,110
2991.00,140
2990.00,167
2989.00,167
2988.00,164
2987.00,162
2986.00,160
2985.00,159
2984.00,158
2983.00,156
2982.00,145
2981.00,100
2980.00,65
2979.00,82
2978.00,99
2977.00,99
2976.00,102
2975.00,122
2974.00,140
2973.00,139
2972.00,137
2971.00,135
2970.00,132
2969.00,130
2968.00,128
2967.00,126
2966.00,122
2965.00,110
2964.00,99
2963.00,96
2962.00,94
2961.00,92
2960.00,84
2959.00,46
2958.00,6
2957.00,-2
2956.00,7
2955.00,109
2954.00,222
2953.00,252
2952.00,258
2951.00,240
2950.00,218
2949.00,210
2948.00,207
2947.00,205
2946.00,202
2945.00,200
2944.00,197
2943.00,196
2942.00,194
2941.00,192
2940.00,190
2939.00,187
2938.00,183
2937.00,161
2936.00,122
2935.00,90
2934.00,68
2933.00,55
2932.00,53
2931.00,54
2930.00,61
2929.00,77
2928.00,110
2927.00,135
2926.00,135
2925.00,135
2924.00,140
2923.00,145
2922.00,143
2921.00,140
2920.00,137
2919.00,135
2918.00,133
2917.00,131
2916.00,136
2915.00,142
2914.00,125
2913.00,99
2912.00,115
2911.00,155
2910.00,186
2909.00,209
2908.00,212
2907.00,191
2906.00,177
2905.00,174
2904.00,172
2903.00,170
2902.00,168
2901.00,165
2900.00,163
2899.00,160
2898.00,158
2897.00,169
2896.00,180
2895.00,163
2894.00,138
2893.00,125
2892.00,117
2891.00,118
2890.00,124
2889.00,129
2888.00,134
2887.00,82
2886.00,-52
2885.00,-116
2884.00,-20
2883.00,69
2882.00,121
2881.00,151
2880.00,76
2879.00,-5
2878.00,-21
2877.00,-20
2876.00,30
2875.00,97
2874.00,143
2873.00,177
2872.00,176
2871.00,139
2870.00,118
2869.00,122
2868.00,123
2867.00,114
2866.00,107
2865.00,104
2864.00,103
2863.00,101
2862.00,100
2861.00,102
2860.00,105
2859.00,105
2858.00,104
2857.00,99
2856.00,90
2855.00,86
2854.00,91
2853.00,94
2852.00,93
2851.00,92
2850.00,95
2849.00,99
2848.00,94
2847.00,86
2846.00,102
2845.00,131
2844.00,153
2843.00,168
2842.00,176
2841.00,168
2840.00,161
2839.00,158
2838.00,153
2837.00,130
2836.00,103
2835.00,82
2834.00,63
2833.00,50
2832.00,43
2831.00,40
2830.00,45
2829.00,50
2828.00,54
2827.00,56
2826.00,49
2825.00,42
2824.00,43
2823.00,47
2822.00,47
2821.00,45
2820.00,40
2819.00,32
2818.00,28
2817.00,32
2816.00,36
2815.00,40
2814.00,43
2813.00,39
2812.00,32
2811.00,22
2810.00,9
2809.00,1
2808.00,-1
2807.00,4
2806.00,26
2805.00,48
2804.00,59
2803.00,67
2802.00,46
2801.00,13
2800.00,16
2799.00,49
2798.00,72
2797.00,71
2796.00,70
2795.00,77
2794.00,86
2793.00,106
2792.00,129
2791.00,138
2790.00,136
2789.00,121
2788.00,85
2787.00,54
2786.00,44
2785.00,38
2784.00,36
2783.00,35
2782.00,30
2781.00,25
2780.00,20
2779.00,19
2778.00,23
2777.00,52
2776.00,80
2775.00,81
2774.00,74
2773.00,70
2772.00,67
2771.00,68
2770.00,75
2769.00,81
2768.00,79
2767.00,77
2766.00,76
2765.00,74
2764.00,72
2763.00,71
2762.00,69
2761.00,67
2760.00,65
2759.00,60
2758.00,54
2757.00,45
2756.00,34
2755.00,27
2754.00,25
2753.00,21
2752.00,11
2751.00,2
2750.00,-1
2749.00,-3
2748.00,2
2747.00,13
2746.00,25
2745.00,40
2744.00,53
2743.00,61
2742.00,67
2741.00,68
2740.00,67
2739.00,67
2738.00,69
2737.00,70
2736.00,64
2735.00,56
2734.00,22
2733.00,-20
2732.00,-21
2731.00,13
2730.00,39
2729.00,43
2728.00,44
2727.00,43
2726.00,42
2725.00,44
2724.00,49
2723.00,54
2722.00,55
2721.00,57
2720.00,59
2719.00,61
2718.00,63
2717.00,66
2716.00,66
2715.00,64
2714.00,61
2713.00,53
2712.00,44
2711.00,39
2710.00,37
2709.00,35
2708.00,33
2707.00,30
2706.00,20
2705.00,8
2704.00,4
2703.00,6
2702.00,11
2701.00,20
2700.00,28
2699.00,28
2698.00,26
2697.00,33
2696.00,48
2695.00,60
2694.00,61
2693.00,62
2692.00,56
2691.00,47
2690.00,43
2689.00,42
2688.00,40
2687.00,34
2686.00,28
2685.00,13
2684.00,-6
2683.00,-16
2682.00,-18
2681.00,-19
2680.00,-21
2679.00,-22
2678.00,-3
2677.00,26
2676.00,46
2675.00,51
2674.00,55
2673.00,54
2672.00,52
2671.00,51
2670.00,49
2669.00,48
2668.00,49
2667.00,50
2666.00,52
2665.00,54
2664.00,51
2663.00,43
2662.00,39
2661.00,53
2660.00,71
2659.00,84
2658.00,94
2657.00,97
2656.00,82
2655.00,67
2654.00,52
2653.00,37
2652.00,33
2651.00,40
2650.00,47
2649.00,45
2648.00,43
2647.00,41
2646.00,40
2645.00,38
2644.00,37
2643.00,35
2642.00,34
2641.00,32
2640.00,25
2639.00,12
2638.00,-0
2637.00,-4
2636.00,-7
2635.00,-1
2634.00,11
2633.00,20
2632.00,19
2631.00,17
2630.00,15
2629.00,13
2628.00,13
2627.00,20
2626.00,26
2625.00,26
2624.00,24
2623.00,23
2622.00,24
2621.00,24
2620.00,18
2619.00,12
2618.00,10
2617.00,13
2616.00,16
2615.00,20
2614.00,24
2613.00,24
2612.00,22
2611.00,24
2610.00,35
2609.00,46
2608.00,48
2607.00,45
2606.00,46
2605.00,55
2604.00,62
2603.00,63
2602.00,61
2601.00,59
2600.00,57
2599.00,55
2598.00,47
2597.00,37
2596.00,33
2595.00,36
2594.00,37
2593.00,31
2592.00,24
2591.00,19
2590.00,17
2589.00,14
2588.00,5
2587.00,-5
2586.00,-11
2585.00,-13
2584.00,-9
2583.00,24
2582.00,59
2581.00,59
2580.00,31
2579.00,10
2578.00,21
2577.00,36
2576.00,37
2575.00,30
2574.00,26
2573.00,34
2572.00,44
2571.00,47
2570.00,46
2569.00,43
2568.00,34
2567.00,24
2566.00,26
2565.00,35
2564.00,42
2563.00,41
2562.00,40
2561.00,37
2560.00,35
2559.00,33
2558.00,31
2557.00,28
2556.00,29
2555.00,33
2554.00,35
2553.00,31
2552.00,26
2551.00,22
2550.00,21
2549.00,20
2548.00,23
2547.00,27
2546.00,37
2545.00,54
2544.00,68
2543.00,69
2542.00,68
2541.00,66
2540.00,63
2539.00,61
2538.00,62
2537.00,63
2536.00,61
2535.00,57
2534.00,53
2533.00,51
2532.00,49
2531.00,48
2530.00,46
2529.00,43
2528.00,32
2527.00,16
2526.00,3
2525.00,-1
2524.00,-4
2523.00,5
2522.00,23
2521.00,38
2520.00,37
2519.00,35
2518.00,27
2517.00,15
2516.00,5
2515.00,10
2514.00,18
2513.00,27
2512.00,37
2511.00,45
2510.00,29
2509.00,6
2508.00,-6
2507.00,11
2506.00,28
2505.00,33
2504.00,30
2503.00,27
2502.00,20
2501.00,12
2500.00,2
2499.00,-11
2498.00,-21
2497.00,-15
2496.00,-5
2495.00,0
2494.00,-1
2493.00,-2
2492.00,4
2491.00,14
2490.00,20
2489.00,15
2488.00,9
2487.00,8
2486.00,9
2485.00,12
2484.00,26
2483.00,42
2482.00,43
2481.00,23
2480.00,5
2479.00,1
2478.00,2
2477.00,3
2476.00,2
2475.00,1
2474.00,4
2473.00,10
2472.00,14
2471.00,1
2470.00,-17
2469.00,-23
2468.00,-10
2467.00,3
2466.00,5
2465.00,1
2464.00,-2
2463.00,-4
2462.00,-5
2461.00,-9
2460.00,-15
2459.00,-19
2458.00,-15
2457.00,-9
2456.00,-2
2455.00,6
2454.00,14
2453.00,18
2452.00,17
2451.00,18
2450.00,20
2449.00,24
2448.00,30
2447.00,42
2446.00,53
2445.00,55
2444.00,51
2443.00,48
2442.00,45
2441.00,43
2440.00,42
2439.00,44
2438.00,46
2437.00,45
2436.00,43
2435.00,40
2434.00,37
2433.00,34
2432.00,30
2431.00,25
2430.00,20
2429.00,7
2428.00,-8
2427.00,-21
2426.00,-25
2425.00,-28
2424.00,-30
2423.00,-30
2422.00,-30
2421.00,-33
2420.00,-36
2419.00,-39
2418.00,-41
2417.00,-42
2416.00,-31
2415.00,-4
2414.00,22
2413.00,41
2412.00,57
2411.00,66
2410.00,44
2409.00,18
2408.00,4
2407.00,10
2406.00,16
2405.00,26
2404.00,39
2403.00,48
2402.00,35
2401.00,19
2400.00,9
2399.00,11
2398.00,14
2397.00,25
2396.00,40
2395.00,55
2394.00,62
2393.00,66
2392.00,68
2391.00,59
2390.00,50
2389.00,48
2388.00,55
2387.00,60
2386.00,62
2385.00,62
2384.00,59
2383.00,44
2382.00,27
2381.00,15
2380.00,13
2379.00,10
2378.00,7
2377.00,6
2376.00,4
2375.00,2
2374.00,-0
2373.00,-2
2372.00,-2
2371.00,-2
2370.00,-2
2369.00,-4
2368.00,-6
2367.00,-13
2366.00,-22
2365.00,-31
2364.00,-38
2363.00,-45
2362.00,-50
2361.00,-51
2360.00,-53
2359.00,-52
2358.00,-50
2357.00,-47
2356.00,-36
2355.00,-22
2354.00,-9
2353.00,-5
2352.00,-2
2351.00,-1
2350.00,-4
2349.00,-6
2348.00,-7
2347.00,-8
2346.00,-8
2345.00,-2
2344.00,5
2343.00,12
2342.00,10
2341.00,7
2340.00,7
2339.00,14
2338.00,21
2337.00,24
2336.00,22
2335.00,20
2334.00,18
2333.00,16
2332.00,14
2331.00,14
2330.00,13
2329.00,12
2328.00,8
2327.00,4
2326.00,1
2325.00,-1
2324.00,-2
2323.00,-0
2322.00,4
2321.00,7
2320.00,6
2319.00,3
2318.00,3
2317.00,11
2316.00,19
2315.00,26
2314.00,28
2313.00,30
2312.00,32
2311.00,35
2310.00,37
2309.00,44
2308.00,52
2307.00,59
2306.00,51
2305.00,38
2304.00,27
2303.00,25
2302.00,23
2301.00,22
2300.00,21
2299.00,21
2298.00,20
2297.00,18
2296.00,15
2295.00,8
2294.00,-2
2293.00,-11
2292.00,-7
2291.00,1
2290.00,7
2289.00,-1
2288.00,-12
2287.00,-20
2286.00,-23
2285.00,-25
2284.00,-28
2283.00,-32
2282.00,-36
2281.00,-37
2280.00,-35
2279.00,-34
2278.00,-33
2277.00,-34
2276.00,-34
2275.00,-31
2274.00,-28
2273.00,-25
2272.00,-25
2271.00,-25
2270.00,-23
2269.00,-16
2268.00,-8
2267.00,-7
2266.00,-17
2265.00,-27
2264.00,-29
2263.00,-21
2262.00,-14
2261.00,-16
2260.00,-22
2259.00,-27
2258.00,-20
2257.00,-7
2256.00,2
2255.00,-6
2254.00,-18
2253.00,-27
2252.00,-20
2251.00,-13
2250.00,-7
2249.00,-9
2248.00,-11
2247.00,-12
2246.00,-12
2245.00,-12
2244.00,-12
2243.00,-12
2242.00,-12
2241.00,-12
2240.00,-11
2239.00,-11
2238.00,-10
2237.00,-10
2236.00,-10
2235.00,-12
2234.00,-15
2233.00,-17
2232.00,-18
2231.00,-18
2230.00,-18
2229.00,-14
2228.00,-10
2227.00,-7
2226.00,-3
2225.00,0
2224.00,4
2223.00,8
2222.00,12
2221.00,14
2220.00,13
2219.00,12
2218.00,14
2217.00,18
2216.00,21
2215.00,22
2214.00,21
2213.00,21
2212.00,20
2211.00,19
2210.00,18
2209.00,17
2208.00,17
2207.00,17
2206.00,15
2205.00,14
2204.00,12
2203.00,12
2202.00,11
2201.00,11
2200.00,14
2199.00,17
2198.00,20
2197.00,19
2196.00,18
2195.00,17
2194.00,15
2193.00,13
2192.00,12
2191.00,11
2190.00,11
2189.00,10
2188.00,8
2187.00,6
2186.00,4
2185.00,2
2184.00,1
2183.00,-1
2182.00,-1
2181.00,-2
2180.00,-3
2179.00,-4
2178.00,-5
2177.00,-7
2176.00,-8
2175.00,-9
2174.00,-7
2173.00,-3
2172.00,1
2171.00,1
2170.00,-0
2169.00,-1
2168.00,-1
2167.00,-0
2166.00,0
2165.00,-1
2164.00,-2
2163.00,-3
2162.00,-3
2161.00,-2
2160.00,-1
2159.00,6
2158.00,15
2157.00,23
2156.00,27
2155.00,30
2154.00,33
2153.00,34
2152.00,35
2151.00,36
2150.00,36
2149.00,35
2148.00,34
2147.00,32
2146.00,30
2145.00,30
2144.00,35
2143.00,42
2142.00,48
2141.00,50
2140.00,52
2139.00,53
2138.00,50
2137.00,47
2136.00,44
2135.00,41
2134.00,39
2133.00,37
2132.00,35
2131.00,33
2130.00,32
2129.00,28
2128.00,25
2127.00,23
2126.00,28
2125.00,35
2124.00,42
2123.00,51
2122.00,60
2121.00,68
2120.00,67
2119.00,64
2118.00,61
2117.00,58
2116.00,56
2115.00,54
2114.00,56
2113.00,59
2112.00,64
2111.00,78
2110.00,95
2109.00,110
2108.00,109
2107.00,105
2106.00,101
2105.00,101
2104.00,102
2103.00,102
2102.00,93
2101.00,82
2100.00,71
2099.00,65
2098.00,61
2097.00,56
2096.00,52
2095.00,49
2094.00,45
2093.00,47
2092.00,51
2091.00,55
2090.00,62
2089.00,70
2088.00,78
2087.00,81
2086.00,82
2085.00,82
2084.00,79
2083.00,74
2082.00,68
2081.00,63
2080.00,58
2079.00,53
2078.00,49
2077.00,46
2076.00,43
2075.00,40
2074.00,35
2073.00,31
2072.00,29
2071.00,31
2070.00,34
2069.00,39
2068.00,49
2067.00,59
2066.00,67
2065.00,67
2064.00,66
2063.00,65
2062.00,63
2061.00,61
2060.00,58
2059.00,54
2058.00,50
2057.00,46
2056.00,47
2055.00,49
2054.00,51
2053.00,57
2052.00,64
2051.00,70
2050.00,69
2049.00,65
2048.00,62
2047.00,55
2046.00,46
2045.00,38
2044.00,34
2043.00,32
2042.00,30
2041.00,27
2040.00,24
2039.00,22
2038.00,26
2037.00,38
2036.00,49
2035.00,55
2034.00,51
2033.00,47
2032.00,42
2031.00,38
2030.00,34
2029.00,32
2028.00,34
2027.00,36
2026.00,37
2025.00,31
2024.00,23
2023.00,16
2022.00,8
2021.00,-1
2020.00,-9
2019.00,-2
2018.00,9
2017.00,20
2016.00,29
2015.00,38
2014.00,46
2013.00,48
2012.00,46
2011.00,43
2010.00,43
2009.00,47
2008.00,51
2007.00,53
2006.00,50
2005.00,48
2004.00,46
2003.00,50
2002.00,53
2001.00,56
2000.00,53
1999.00,49
1998.00,46
1997.00,51
1996.00,58
1995.00,65
1994.00,65
1993.00,62
1992.00,59
1991.00,59
1990.00,60
1989.00,61
1988.00,63
1987.00,65
1986.00,68
1985.00,68
1984.00,64
1983.00,59
1982.00,55
1981.00,52
1980.00,49
1979.00,46
1978.00,49
1977.00,54
1976.00,58
1975.00,58
1974.00,55
1973.00,53
1972.00,52
1971.00,51
1970.00,50
1969.00,50
1968.00,51
1967.00,52
1966.00,53
1965.00,53
1964.00,53
1963.00,53
1962.00,56
1961.00,59
1960.00,63
1959.00,62
1958.00,61
1957.00,59
1956.00,57
1955.00,56
1954.00,55
1953.00,58
1952.00,66
1951.00,75
1950.00,82
1949.00,86
1948.00,90
1947.00,92
1946.00,90
1945.00,86
1944.00,83
1943.00,80
1942.00,78
1941.00,75
1940.00,74
1939.00,74
1938.00,74
1937.00,74
1936.00,77
1935.00,79
1934.00,80
1933.00,77
1932.00,74
1931.00,72
1930.00,68
1929.00,64
1928.00,61
1927.00,69
1926.00,81
1925.00,93
1924.00,98
1923.00,97
1922.00,96
1921.00,96
1920.00,98
1919.00,101
1918.00,102
1917.00,98
1916.00,93
1915.00,89
1914.00,85
1913.00,81
1912.00,78
1911.00,77
1910.00,79
1909.00,81
1908.00,82
1907.00,84
1906.00,85
1905.00,86
1904.00,85
1903.00,84
1902.00,82
1901.00,84
1900.00,86
1899.00,88
1898.00,87
1897.00,84
1896.00,80
1895.00,80
1894.00,85
1893.00,91
1892.00,97
1891.00,100
1890.00,103
1889.00,107
1888.00,109
1887.00,111
1886.00,113
1885.00,114
1884.00,113
1883.00,111
1882.00,110
1881.00,108
1880.00,106
1879.00,104
1878.00,103
1877.00,103
1876.00,102
1875.00,102
1874.00,102
1873.00,102
1872.00,102
1871.00,102
1870.00,102
1869.00,102
1868.00,100
1867.00,97
1866.00,95
1865.00,98
1864.00,103
1863.00,109
1862.00,109
1861.00,106
1860.00,102
1859.00,98
1858.00,93
1857.00,87
1856.00,82
1855.00,82
1854.00,82
1853.00,83
1852.00,83
1851.00,83
1850.00,83
1849.00,84
1848.00,87
1847.00,90
1846.00,92
1845.00,90
1844.00,87
1843.00,85
1842.00,84
1841.00,84
1840.00,84
1839.00,84
1838.00,84
1837.00,84
1836.00,84
1835.00,82
1834.00,80
1833.00,78
1832.00,79
1831.00,82
1830.00,85
1829.00,86
1828.00,85
1827.00,83
1826.00,81
1825.00,80
1824.00,78
1823.00,77
1822.00,77
1821.00,77
1820.00,78
1819.00,84
1818.00,100
1817.00,117
1816.00,131
1815.00,132
1814.00,131
1813.00,129
1812.00,129
1811.00,130
1810.00,131
1809.00,131
1808.00,132
1807.00,132
1806.00,132
1805.00,130
1804.00,128
1803.00,125
1802.00,123
1801.00,121
1800.00,119
1799.00,117
1798.00,114
1797.00,112
1796.00,109
1795.00,107
1794.00,105
1793.00,104
1792.00,100
1791.00,94
1790.00,88
1789.00,83
1788.00,86
1787.00,91
1786.00,95
1785.00,95
1784.00,93
1783.00,91
1782.00,90
1781.00,90
1780.00,90
1779.00,90
1778.00,92
1777.00,95
1776.00,97
1775.00,103
1774.00,111
1773.00,120
1772.00,127
1771.00,130
1770.00,133
1769.00,136
1768.00,132
1767.00,125
1766.00,119
1765.00,114
1764.00,111
1763.00,109
1762.00,107
1761.00,111
1760.00,117
1759.00,123
1758.00,121
1757.00,113
1756.00,105
1755.00,98
1754.00,95
1753.00,93
1752.00,91
1751.00,94
1750.00,100
1749.00,105
1748.00,109
1747.00,108
1746.00,107
1745.00,107
1744.00,110
1743.00,115
1742.00,119
1741.00,121
1740.00,119
1739.00,116
1738.00,114
1737.00,110
1736.00,107
1735.00,103
1734.00,101
1733.00,99
1732.00,97
1731.00,96
1730.00,98
1729.00,100
1728.00,102
1727.00,108
1726.00,115
1725.00,123
1724.00,129
1723.00,131
1722.00,132
1721.00,133
1720.00,133
1719.00,132
1718.00,132
1717.00,131
1716.00,131
1715.00,130
1714.00,129
1713.00,128
1712.00,126
1711.00,124
1710.00,124
1709.00,126
1708.00,129
1707.00,131
1706.00,131
1705.00,129
1704.00,128
1703.00,125
1702.00,120
1701.00,116
1700.00,111
1699.00,109
1698.00,108
1697.00,106
1696.00,104
1695.00,101
1694.00,97
1693.00,98
1692.00,120
1691.00,147
1690.00,172
1689.00,182
1688.00,177
1687.00,172
1686.00,167
1685.00,164
1684.00,162
1683.00,159
1682.00,157
1681.00,156
1680.00,154
1679.00,152
1678.00,149
1677.00,145
1676.00,141
1675.00,140
1674.00,142
1673.00,144
1672.00,147
1671.00,161
1670.00,176
1669.00,191
1668.00,197
1667.00,196
1666.00,194
1665.00,193
1664.00,192
1663.00,192
1662.00,191
1661.00,190
1660.00,189
1659.00,188
1658.00,188
1657.00,203
1656.00,220
1655.00,237
1654.00,245
1653.00,244
1652.00,243
1651.00,241
1650.00,238
1649.00,235
1648.00,232
1647.00,228
1646.00,224
1645.00,220
1644.00,216
1643.00,210
1642.00,205
1641.00,200
1640.00,194
1639.00,189
1638.00,184
1637.00,179
1636.00,176
1635.00,175
1634.00,173
1633.00,174
1632.00,178
1631.00,183
1630.00,187
1629.00,188
1628.00,187
1627.00,186
1626.00,185
1625.00,182
1624.00,179
1623.00,176
1622.00,179
1621.00,185
1620.00,193
1619.00,200
1618.00,207
1617.00,215
1616.00,222
1615.00,225
1614.00,222
1613.00,219
1612.00,215
1611.00,212
1610.00,208
1609.00,205
1608.00,202
1607.00,199
1606.00,197
1605.00,194
1604.00,202
1603.00,215
1602.00,228
1601.00,238
1600.00,239
1599.00,238
1598.00,238
1597.00,236
1596.00,232
1595.00,229
1594.00,225
1593.00,225
1592.00,225
1591.00,226
1590.00,225
1589.00,221
1588.00,217
1587.00,213
1586.00,208
1585.00,202
1584.00,196
1583.00,192
1582.00,195
1581.00,199
1580.00,203
1579.00,203
1578.00,200
1577.00,196
1576.00,193
1575.00,195
1574.00,199
1573.00,203
1572.00,205
1571.00,205
1570.00,204
1569.00,204
1568.00,202
1567.00,200
1566.00,197
1565.00,195
1564.00,190
1563.00,185
1562.00,181
1561.00,176
1560.00,171
1559.00,166
1558.00,162
1557.00,158
1556.00,156
1555.00,153
1554.00,150
1553.00,145
1552.00,140
1551.00,135
1550.00,137
1549.00,144
1548.00,150
1547.00,157
1546.00,157
1545.00,156
1544.00,155
1543.00,155
1542.00,162
1541.00,168
1540.00,175
1539.00,180
1538.00,185
1537.00,189
1536.00,193
1535.00,193
1534.00,192
1533.00,191
1532.00,189
1531.00,188
1530.00,187
1529.00,186
1528.00,184
1527.00,181
1526.00,179
1525.00,176
1524.00,174
1523.00,171
1522.00,169
1521.00,167
1520.00,164
1519.00,161
1518.00,158
1517.00,159
1516.00,161
1515.00,163
1514.00,165
1513.00,163
1512.00,161
1511.00,158
1510.00,156
1509.00,156
1508.00,157
1507.00,157
1506.00,157
1505.00,155
1504.00,153
1503.00,152
1502.00,152
1501.00,153
1500.00,153
1499.00,154
1498.00,158
1497.00,161
1496.00,165
1495.00,167
1494.00,167
1493.00,166
1492.00,166
1491.00,168
1490.00,171
1489.00,175
1488.00,177
1487.00,177
1486.00,177
1485.00,177
1484.00,176
1483.00,174
1482.00,171
1481.00,169
1480.00,166
1479.00,162
1478.00,159
1477.00,156
1476.00,155
1475.00,155
1474.00,154
1473.00,155
1472.00,158
1471.00,160
1470.00,163
1469.00,166
1468.00,168
1467.00,170
1466.00,172
1465.00,173
1464.00,174
1463.00,175
1462.00,176
1461.00,181
1460.00,187
1459.00,192
1458.00,195
1457.00,195
1456.00,193
1455.00,192
1454.00,191
1453.00,190
1452.00,189
1451.00,187
1450.00,186
1449.00,184
1448.00,183
1447.00,181
1446.00,179
1445.00,178
1444.00,176
1443.00,174
1442.00,172
1441.00,170
1440.00,168
1439.00,166
1438.00,164
1437.00,162
1436.00,161
1435.00,171
1434.00,187
1433.00,203
1432.00,217
1431.00,217
1430.00,212
1429.00,208
1428.00,204
1427.00,204
1426.00,203
1425.00,203
1424.00,202
1423.00,200
1422.00,198
1421.00,196
1420.00,196
1419.00,197
1418.00,198
1417.00,199
1416.00,195
1415.00,190
1414.00,184
1413.00,179
1412.00,181
1411.00,185
1410.00,188
1409.00,190
1408.00,188
1407.00,186
1406.00,185
1405.00,183
1404.00,181
1403.00,179
1402.00,176
1401.00,174
1400.00,172
1399.00,169
1398.00,167
1397.00,165
1396.00,163
1395.00,161
1394.00,160
1393.00,160
1392.00,160
1391.00,160
1390.00,160
1389.00,158
1388.00,155
1387.00,153
1386.00,154
1385.00,161
1384.00,168
1383.00,175
1382.00,177
1381.00,175
1380.00,172
1379.00,170
1378.00,167
1377.00,164
1376.00,161
1375.00,158
1374.00,155
1373.00,153
1372.00,151
1371.00,148
1370.00,148
1369.00,147
1368.00,146
1367.00,145
1366.00,142
1365.00,139
1364.00,137
1363.00,135
1362.00,135
1361.00,134
1360.00,134
1359.00,135
1358.00,137
1357.00,138
1356.00,140
1355.00,140
1354.00,139
1353.00,138
1352.00,137
1351.00,135
1350.00,133
1349.00,131
1348.00,129
1347.00,127
1346.00,126
1345.00,124
1344.00,123
1343.00,125
1342.00,127
1341.00,130
1340.00,132
1339.00,132
1338.00,132
1337.00,132
1336.00,133
1335.00,134
1334.00,136
1333.00,138
1332.00,138
1331.00,135
1330.00,132
1329.00,130
1328.00,128
1327.00,128
1326.00,128
1325.00,128
1324.00,125
1323.00,122
1322.00,119
1321.00,116
1320.00,123
1319.00,135
1318.00,146
1317.00,157
1316.00,157
1315.00,154
1314.00,152
1313.00,149
1312.00,145
1311.00,141
1310.00,137
1309.00,134
1308.00,131
1307.00,129
1306.00,127
1305.00,125
1304.00,122
1303.00,118
1302.00,115
1301.00,115
1300.00,120
1299.00,126
1298.00,132
1297.00,135
1296.00,132
1295.00,128
1294.00,125
1293.00,123
1292.00,124
1291.00,126
1290.00,127
1289.00,127
1288.00,126
1287.00,126
1286.00,125
1285.00,123
1284.00,119
1283.00,115
1282.00,111
1281.00,110
1280.00,110
1279.00,111
1278.00,111
1277.00,113
1276.00,115
1275.00,117
1274.00,118
1273.00,114
1272.00,106
1271.00,98
1270.00,91
1269.00,92
1268.00,96
1267.00,101
1266.00,106
1265.00,106
1264.00,106
1263.00,106
1262.00,106
1261.00,103
1260.00,100
1259.00,97
1258.00,94
1257.00,93
1256.00,93
1255.00,93
1254.00,93
1253.00,97
1252.00,100
1251.00,105
1250.00,108
1249.00,109
1248.00,108
1247.00,108
1246.00,107
1245.00,105
1244.00,102
1243.00,99
1242.00,97
1241.00,96
1240.00,95
1239.00,94
1238.00,93
1237.00,91
1236.00,89
1235.00,87
1234.00,84
1233.00,82
1232.00,80
1231.00,77
1230.00,75
1229.00,74
1228.00,74
1227.00,73
1226.00,74
1225.00,79
1224.00,84
1223.00,90
1222.00,94
1221.00,92
1220.00,90
1219.00,88
1218.00,85
1217.00,83
1216.00,81
1215.00,78
1214.00,76
1213.00,76
1212.00,76
1211.00,76
1210.00,76
1209.00,74
1208.00,73
1207.00,71
1206.00,70
1205.00,73
1204.00,76
1203.00,79
1202.00,82
1201.00,80
1200.00,77
1199.00,74
1198.00,71
1197.00,73
1196.00,77
1195.00,80
1194.00,83
1193.00,83
1192.00,83
1191.00,83
1190.00,83
1189.00,82
1188.00,80
1187.00,78
1186.00,76
1185.00,73
1184.00,68
1183.00,64
1182.00,60
1181.00,60
1180.00,60
1179.00,61
1178.00,61
1177.00,57
1176.00,51
1175.00,46
1174.00,40
1173.00,37
1172.00,36
1171.00,35
1170.00,34
1169.00,33
1168.00,33
1167.00,32
1166.00,32
1165.00,33
1164.00,35
1163.00,37
1162.00,39
1161.00,38
1160.00,35
1159.00,32
1158.00,29
1157.00,27
1156.00,29
1155.00,30
1154.00,31
1153.00,32
1152.00,32
1151.00,31
1150.00,30
1149.00,32
1148.00,40
1147.00,49
1146.00,57
1145.00,63
1144.00,59
1143.00,55
1142.00,52
1141.00,48
1140.00,46
1139.00,45
1138.00,43
1137.00,42
1136.00,43
1135.00,43
1134.00,44
1133.00,45
1132.00,49
1131.00,54
1130.00,58
1129.00,62
1128.00,64
1127.00,64
1126.00,64
1125.00,65
1124.00,64
1123.00,62
1122.00,60
1121.00,59
1120.00,56
1119.00,53
1118.00,50
1117.00,47
1116.00,44
1115.00,39
1114.00,35
1113.00,31
1112.00,31
1111.00,36
1110.00,43
1109.00,49
1108.00,53
1107.00,54
1106.00,55
1105.00,56
1104.00,57
1103.00,54
1102.00,52
1101.00,49
1100.00,47
1099.00,44
1098.00,41
1097.00,38
1096.00,36
1095.00,36
1094.00,36
1093.00,37
1092.00,38
1091.00,36
1090.00,34
1089.00,31
1088.00,29
1087.00,27
1086.00,25
1085.00,23
1084.00,21
1083.00,19
1082.00,17
1081.00,15
1080.00,12
1079.00,10
1078.00,7
1077.00,4
1076.00,1
1075.00,-1
1074.00,1
1073.00,4
1072.00,6
1071.00,9
1070.00,7
1069.00,4
1068.00,1
1067.00,-1
1066.00,2
1065.00,7
1064.00,13
1063.00,19
1062.00,20
1061.00,18
1060.00,15
1059.00,13
1058.00,12
1057.00,13
1056.00,14
1055.00,15
1054.00,14
1053.00,7
1052.00,-1
1051.00,-9
1050.00,-16
1049.00,-15
1048.00,-12
1047.00,-9
1046.00,-7
1045.00,-7
1044.00,-8
1043.00,-9
1042.00,-10
1041.00,-11
1040.00,-13
1039.00,-14
1038.00,-15
1037.00,-17
1036.00,-22
1035.00,-26
1034.00,-30
1033.00,-33
1032.00,-33
1031.00,-32
1030.00,-31
1029.00,-30
1028.00,-28
1027.00,-26
1026.00,-23
1025.00,-21
1024.00,-17
1023.00,-13
1022.00,-8
1021.00,-4
1020.00,-3
1019.00,-5
1018.00,-7
1017.00,-10
1016.00,-12
1015.00,-15
1014.00,-17
1013.00,-20
1012.00,-21
1011.00,-15
1010.00,-8
1009.00,-1
1008.00,6
1007.00,7
1006.00,5
1005.00,4
1004.00,3
1003.00,2
1002.00,1
1001.00,0
1000.00,-1
999.00,-2
998.00,-6
997.00,-9
996.00,-12
995.00,-15
994.00,-17
993.00,-19
992.00,-21
991.00,-23
990.00,-23
989.00,-23
988.00,-23
987.00,-23
986.00,-21
985.00,-16
984.00,-12
983.00,-8
982.00,-7
981.00,-11
980.00,-15
979.00,-19
978.00,-23
977.00,-25
976.00,-27
975.00,-28
974.00,-30
973.00,-32
972.00,-34
971.00,-37
970.00,-39
969.00,-38
968.00,-36
967.00,-33
966.00,-30
965.00,-29
964.00,-33
963.00,-37
962.00,-41
961.00,-44
960.00,-44
959.00,-43
958.00,-43
957.00,-42
956.00,-39
955.00,-35
954.00,-31
953.00,-27
952.00,-26
951.00,-28
950.00,-31
949.00,-34
948.00,-36
947.00,-38
946.00,-39
945.00,-40
944.00,-42
943.00,-43
942.00,-45
941.00,-46
940.00,-47
939.00,-45
938.00,-37
937.00,-30
936.00,-22
935.00,-16
934.00,-18
933.00,-22
932.00,-25
931.00,-28
930.00,-29
929.00,-29
928.00,-29
927.00,-29
926.00,-29
925.00,-29
924.00,-30
923.00,-30
922.00,-31
921.00,-33
920.00,-35
919.00,-37
918.00,-39
917.00,-35
916.00,-30
915.00,-24
914.00,-18
913.00,-16
912.00,-19
911.00,-21
910.00,-24
909.00,-25
908.00,-21
907.00,-16
906.00,-12
905.00,-7
904.00,-8
903.00,-11
902.00,-14
901.00,-17
900.00,-20
899.00,-21
898.00,-22
897.00,-24
896.00,-25
895.00,-28
894.00,-30
893.00,-32
892.00,-35
891.00,-35
890.00,-33
889.00,-32
888.00,-30
887.00,-26
886.00,-19
885.00,-12
884.00,-5
883.00,2
882.00,2
881.00,1
880.00,-0
879.00,-1
878.00,-4
877.00,-6
876.00,-9
875.00,-12
874.00,-15
873.00,-17
872.00,-19
871.00,-20
870.00,-22
869.00,-21
868.00,-20
867.00,-18
866.00,-17
865.00,-14
864.00,-8
863.00,-3
862.00,2
861.00,7
860.00,10
859.00,13
858.00,15
857.00,18
856.00,19
855.00,19
854.00,20
853.00,20
852.00,21
851.00,21
850.00,21
849.00,22
848.00,22
847.00,22
846.00,22
845.00,21
844.00,21
843.00,19
842.00,14
841.00,9
840.00,4
839.00,-0
838.00,0
837.00,3
836.00,5
835.00,7
834.00,8
833.00,7
832.00,7
831.00,7
830.00,7
829.00,5
828.00,3
827.00,0
826.00,-2
825.00,-2
824.00,-2
823.00,-1
822.00,-0
821.00,1
820.00,1
819.00,2
818.00,2
817.00,3
816.00,3
815.00,3
814.00,2
813.00,2
812.00,1
811.00,-2
810.00,-5
809.00,-8
808.00,-10
807.00,-2
806.00,9
805.00,21
804.00,32
803.00,40
802.00,38
801.00,37
800.00,35
799.00,34
798.00,32
797.00,30
796.00,28
795.00,26
794.00,24
793.00,23
792.00,22
791.00,21
790.00,20
789.00,20
788.00,21
787.00,21
786.00,22
785.00,22
784.00,20
783.00,18
782.00,16
781.00,15
780.00,18
779.00,23
778.00,27
777.00,31
776.00,35
775.00,39
774.00,42
773.00,46
772.00,49
771.00,48
770.00,47
769.00,45
768.00,44
767.00,43
766.00,45
765.00,47
764.00,48
763.00,50
762.00,51
761.00,51
760.00,52
759.00,53
758.00,55
757.00,58
756.00,62
755.00,66
754.00,69
753.00,68
752.00,65
751.00,63
750.00,61
749.00,60
748.00,62
747.00,63
746.00,65
745.00,66
744.00,64
743.00,62
742.00,60
741.00,57
740.00,55
739.00,54
738.00,52
737.00,50
736.00,49
735.00,48
734.00,47
733.00,46
732.00,45
731.00,46
730.00,49
729.00,53
728.00,57
727.00,61
726.00,64
725.00,67
724.00,71
723.00,74
722.00,77
721.00,80
720.00,84
719.00,87
718.00,90
717.00,89
716.00,85
715.00,81
714.00,77
713.00,74
712.00,82
711.00,91
710.00,99
709.00,108
708.00,112
707.00,110
706.00,107
705.00,105
704.00,103
703.00,104
702.00,107
701.00,109
700.00,111
699.00,111
698.00,107
697.00,102
696.00,98
695.00,93
694.00,94
693.00,96
692.00,99
691.00,101
690.00,102
689.00,100
688.00,96
687.00,93
686.00,90
685.00,94
684.00,104
683.00,113
682.00,123
681.00,131
680.00,130
679.00,127
678.00,124
677.00,121
676.00,121
675.00,124
674.00,127
673.00,130
672.00,133
671.00,134
670.00,135
669.00,136
668.00,137
667.00,138
666.00,144
665.00,150
664.00,157
663.00,162
662.00,164
661.00,163
660.00,161
659.00,159
658.00,157
657.00,156
656.00,155
655.00,154
654.00,153
653.00,153
652.00,156
651.00,159
650.00,161
649.00,164
648.00,162
647.00,159
646.00,155
645.00,152
644.00,149
643.00,153
642.00,158
641.00,163
640.00,168
639.00,171
638.00,170
637.00,169
636.00,169
635.00,168
634.00,166
633.00,164
632.00,162
631.00,160
630.00,160
629.00,169
628.00,180
627.00,191
626.00,202
625.00,208
624.00,204
623.00,201
622.00,197
621.00,193
620.00,190
619.00,188
618.00,185
617.00,183
616.00,180
615.00,177
614.00,174
613.00,171
612.00,168
611.00,164
610.00,160
609.00,156
608.00,152
607.00,148
606.00,155
605.00,166
604.00,178
603.00,189
602.00,199
601.00,199
600.00,197
599.00,195
598.00,193
597.00,190
596.00,188
595.00,185
594.00,183
593.00,181
592.00,180
591.00,181
590.00,181
589.00,182
588.00,182
587.00,184
586.00,186
585.00,189
584.00,191
583.00,192
582.00,193
581.00,194
580.00,195
579.00,196
578.00,196
577.00,197
576.00,197
575.00,197
574.00,197
573.00,200
572.00,205
571.00,210
570.00,214
569.00,218
568.00,216
567.00,213
566.00,210
565.00,207
564.00,206
563.00,207
562.00,209
561.00,210
560.00,212
559.00,215
558.00,221
557.00,226
556.00,231
555.00,236
554.00,238
553.00,237
552.00,237
551.00,237
550.00,236
549.00,233
548.00,229
547.00,224
546.00,220
545.00,218
544.00,219
543.00,219
542.00,220
541.00,221
540.00,222
539.00,224
538.00,226
537.00,228
536.00,230
535.00,231
534.00,232
533.00,232
532.00,233
531.00,235
530.00,240
529.00,245
528.00,251
527.00,256
526.00,261
525.00,263
524.00,265
523.00,267
522.00,269
521.00,271
520.00,272
519.00,274
518.00,275
517.00,276
516.00,274
515.00,270
514.00,267
513.00,263
512.00,259
511.00,256
510.00,252
509.00,249
508.00,246
507.00,244
506.00,244
505.00,246
504.00,247
503.00,248
502.00,249
501.00,251
500.00,253
499.00,255
498.00,257
497.00,260
496.00,264
495.00,267
494.00,271
493.00,274
492.00,273
491.00,270
490.00,267
489.00,264
488.00,261
487.00,257
486.00,253
485.00,250
484.00,246
483.00,243
482.00,243
481.00,243
480.00,243
479.00,243
478.00,243
477.00,245
476.00,246
475.00,248
474.00,249
473.00,250
472.00,250
471.00,250
470.00,250
469.00,250
468.00,250
467.00,251
466.00,251
465.00,252
464.00,253
463.00,253
462.00,252
461.00,252
460.00,252
459.00,252
458.00,254
457.00,257
456.00,260
455.00,263
454.00,265
453.00,265
452.00,264
451.00,263
450.00,262
449.00,263
448.00,270
447.00,277
446.00,283
445.00,290
444.00,293
443.00,293
442.00,292
441.00,291
440.00,291
439.00,290
438.00,289
437.00,288
436.00,286
435.00,285
434.00,286
433.00,288
432.00,289
431.00,291
430.00,293
429.00,294
428.00,295
427.00,296
426.00,297
425.00,298
424.00,297
423.00,295
422.00,293
421.00,291
420.00,290
419.00,290
418.00,290
417.00,290
416.00,290
415.00,290
414.00,289
413.00,288
412.00,287
411.00,285
410.00,285
409.00,287
408.00,289
407.00,291
406.00,293
405.00,295
404.00,297
403.00,299
402.00,301
401.00,303
400.00,303
399.00,302
398.00,300
397.00,298
396.00,297
395.00,297
394.00,299
393.00,300
392.00,302
391.00,305
390.00,305
389.00,303
388.00,301
387.00,299
386.00,297
385.00,297
384.00,299
383.00,301
382.00,303
381.00,305
380.00,307
379.00,309
378.00,312
377.00,314
376.00,316
375.00,315
374.00,314
373.00,312
372.00,310
371.00,308
370.00,306
369.00,304
368.00,301
367.00,299
366.00,296
365.00,294
364.00,293
363.00,291
362.00,289
361.00,288
360.00,287
359.00,287
358.00,286
357.00,286
356.00,285
355.00,284
354.00,283
353.00,282
352.00,281
351.00,281
350.00,287
349.00,294
348.00,301
347.00,308
346.00,314
345.00,314
344.00,313
343.00,312
342.00,311
341.00,310
340.00,311
339.00,312
338.00,313
337.00,314
336.00,315
335.00,314
334.00,314
333.00,313
332.00,313
331.00,312
330.00,310
329.00,308
328.00,306
327.00,304
326.00,302
325.00,297
324.00,292
323.00,286
322.00,281
321.00,276
320.00,275
319.00,273
318.00,272
317.00,270
316.00,269
315.00,266
314.00,264
313.00,261
312.00,259
311.00,257
310.00,260
309.00,264
308.00,267
307.00,271
306.00,274
305.00,272
304.00,271
303.00,269
302.00,267
301.00,266
300.00,270
299.00,274
298.00,278
297.00,282
296.00,286
295.00,285
294.00,283
293.00,282
292.00,280
291.00,279
290.00,281
289.00,284
288.00,287
287.00,291
286.00,293
285.00,294
284.00,293
283.00,293
282.00,293
281.00,292
280.00,290
279.00,288
278.00,285
277.00,283
276.00,281
275.00,279
274.00,277
273.00,274
272.00,272
271.00,270
270.00,268
269.00,265
268.00,263
267.00,260
266.00,257
265.00,256
264.00,255
263.00,254
262.00,253
261.00,253
260.00,252
259.00,250
258.00,250
257.00,249
256.00,248
255.00,249
254.00,251
253.00,253
252.00,256
251.00,258
250.00,260
249.00,260
248.00,260
247.00,260
246.00,261
245.00,260
244.00,260
243.00,259
242.00,258
241.00,258
240.00,258
239.00,259
238.00,260
237.00,261
236.00,263
235.00,263
234.00,259
233.00,255
232.00,250
231.00,246
230.00,243
229.00,240
228.00,238
227.00,236
226.00,234
225.00,232
224.00,230
223.00,228
222.00,226
221.00,223
220.00,221
219.00,222
218.00,224
217.00,225
216.00,227
215.00,228
214.00,224
213.00,218
212.00,212
211.00,206
210.00,199
209.00,198
208.00,198
207.00,199
206.00,199
205.00,200
204.00,200
203.00,199
202.00,199
201.00,198
200.00,198
199.00,194
198.00,185
197.00,176
196.00,166
195.00,157
194.00,150
193.00,150
192.00,150
191.00,150
190.00,150
189.00,150
188.00,149
187.00,149
186.00,148
185.00,148
184.00,147
183.00,143
182.00,139
181.00,134
180.00,129
179.00,125
178.00,123
177.00,121
176.00,120
175.00,118
174.00,117
173.00,114
172.00,111
171.00,108
170.00,105
169.00,102
168.00,99
167.00,98
166.00,97
165.00,96
164.00,95
163.00,94
162.00,91
161.00,89
160.00,86
159.00,84
158.00,81
157.00,78
156.00,74
155.00,70
154.00,67
153.00,63
152.00,60
151.00,56
150.00,53
149.00,50
148.00,46
147.00,40
146.00,32
145.00,25
144.00,17
143.00,9
142.00,4
141.00,3
140.00,1
139.00,0
138.00,-1
137.00,-3
136.00,-6
135.00,-9
134.00,-12
133.00,-14
132.00,-17
131.00,-20
130.00,-22
129.00,-24
128.00,-27
127.00,-29
126.00,-28
125.00,-26
124.00,-25
123.00,-23
122.00,-21
121.00,-19
120.00,-16
119.00,-12
118.00,-9
117.00,-5
116.00,-4
115.00,-7
114.00,-10
113.00,-13
112.00,-15
111.00,-19
110.00,-25
109.00,-31
108.00,-38
107.00,-44
106.00,-51
105.00,-55
104.00,-60
103.00,-64
102.00,-68
101.00,-74
100.00,-80
