Unnamed: 0,Unnamed: 1
SGH Rubber,
,
,
Raman Shift / cm-1,INT
3200,-88.8368677673853
3199,-87.5473717415535
3198,-88.4982368517853
3197,-59.1109326287011
3196,-6.11039141829773
3195,41.9947329689047
3194,80.4361534648169
3193,87.5645637625241
3192,72.9781573838485
3191,32.7262189888594
3190,20.7609224996776
3189,18.6816665439894
3188,-15.2398993249175
3187,-42.1809634349113
3186,-36.7292046690502
3185,-4.13756555328856
3184,48.1641947847405
3183,67.4741790355176
3182,71.7097606786324
3181,60.2581619674167
3180,49.8688356715494
3179,48.2879376889969
3178,26.0977786697668
3177,-11.2202793451143
3176,-17.8514690969929
3175,-14.9422859646546
3174,-13.7751817812881
3173,-12.8651401422985
3172,-12.0897150322468
3171,12.9110608102244
3170,56.5496050912154
3169,96.5234056317059
3168,124.871221135184
3167,97.3451763677568
3166,61.8515126249545
3165,27.0264349344407
3164,13.715049888569
3163,18.6498231083862
3162,24.9724919067156
3161,22.2652575574738
3160,-39.8282178216377
3159,-71.7154608833213
3158,-4.01101938055444
3157,36.236782882004
3156,39.1322050141351
3155,41.1305543031179
3154,40.1727660302285
3153,16.1503716612135
3152,-13.4037414772098
3151,-42.4774717115434
3150,-83.7552378373497
3149,-147.456713059452
3148,-84.6291471945744
3147,92.0248420960021
3146,480.407032698494
3145,885.156682014673
3144,942.718349644096
3143,886.68760348682
3142,681.42789846443
3141,552.891123010563
3140,549.010788107636
3139,457.177382371223
3138,313.060983581988
3137,167.322897803165
3136,48.4998676743794
3135,57.9939172439844
3134,86.9175663442088
3133,115.318211475275
3132,133.001310686477
3131,135.813396934611
3130,120.241536649829
3129,95.3562466593812
3128,109.072890714701
3127,145.535743576226
3126,244.429479205094
3125,315.900677532639
3124,271.370625063427
3123,258.287208073199
3122,308.937074829087
3121,305.020751585402
3120,253.519491990103
3119,238.216487154355
3118,230.239933246562
3117,147.736647884342
3116,59.0654156739718
3115,26.4852229351884
3114,9.75954704635307
3113,12.0075448119154
3112,63.2289629069705
3111,182.221899579123
3110,153.508733068308
3109,14.0786192132858
3108,1.24612703478313
3107,35.2595210743045
3106,30.454216207764
3105,19.9526355417271
3104,20.801246104785
3103,22.7605076930489
3102,24.1551952012488
3101,25.3655888198162
3100,26.3684472732307
3099,51.5031148719955
3098,97.9179296437372
3097,129.294349034894
3096,151.249482485488
3095,156.219669531451
3094,162.993147414111
3093,219.261444701379
3092,272.459952171792
3091,277.236559092354
3090,258.625123755461
3089,196.427852375018
3088,158.10697480648
3087,158.333688420392
3086,158.694845163669
3085,158.508434800448
3084,144.635038345802
3083,123.416800189375
3082,103.200318066818
3081,83.5095726395102
3080,64.5555386512349
3079,48.5348660283999
3078,48.2454599626131
3077,49.4889035044582
3076,48.4069349506106
3075,41.5251998210158
3074,23.1192980827857
3073,20.4145858509672
3072,40.1811324597537
3071,90.5912591162259
3070,167.765058921188
3069,208.67483101017
3068,226.705063821077
3067,218.724573108394
3066,198.867282821514
3065,166.170919207247
3064,131.174880502575
3063,110.011236472144
3062,94.6892500877852
3061,92.0634294539122
3060,91.5169143040571
3059,92.1564195195644
3058,92.5013758841216
3057,91.8426879092557
3056,98.3904753419115
3055,117.902642817878
3054,128.643438882506
3053,128.702191674864
3052,119.159706605196
3051,101.536780823695
3050,106.288258972073
3049,124.346794854705
3048,130.277308870291
3047,131.350656930362
3046,144.281431791735
3045,159.803707210028
3044,162.420042558173
3043,163.660772619355
3042,177.819037578224
3041,184.719305664469
3040,143.386446414104
3039,104.617044378039
3038,101.753932991178
3037,106.189129366489
3036,120.737037690637
3035,131.73465331382
3034,132.273339165921
3033,132.183528863905
3032,131.847593136118
3031,131.709914156039
3030,131.890567042921
3029,125.195244692312
3028,109.593814525411
3027,95.0286001083495
3026,81.3027074329446
3025,83.3040765751549
3024,99.9913121191195
3023,213.668233969498
3022,383.920056795343
3021,406.604734175671
3020,350.283247687963
3019,378.661389901205
3018,453.522698050437
3017,596.675885768857
3016,747.75055421189
3015,659.189303987933
3014,495.323097416587
3013,402.964278592674
3012,333.782571999674
3011,285.663149291897
3010,247.989364555498
3009,240.306559825933
3008,232.644614280742
3007,175.271542949585
3006,115.502373046329
3005,106.343874200002
3004,105.137215781491
3003,93.4654525484076
3002,82.1053096906634
3001,81.0809638278396
3000,83.4076891820286
2999,95.0711266675004
2998,103.599352283631
2997,93.3538017139996
2996,91.9193480416818
2995,137.012181861703
2994,173.458195847607
2993,154.270726826625
2992,136.280607632995
2991,146.103216058491
2990,156.260054749204
2989,157.106232918424
2988,156.971292019835
2987,156.666190667584
2986,156.245429065543
2985,155.462829610331
2984,150.118901425495
2983,127.801015502845
2982,108.51341495349
2981,106.197510283728
2980,105.592814956664
2979,105.301993166268
2978,107.269036015676
2977,117.784023722725
2976,131.165733694231
2975,152.723110587426
2974,172.975090308304
2973,184.849881921578
2972,193.769418690515
2971,194.337367150134
2970,195.90986210026
2969,205.732267327025
2968,214.557356008257
2967,214.979024968346
2966,216.088863963101
2965,225.319583081413
2964,232.318654449922
2963,222.993640749245
2962,213.032999316782
2961,211.444985791693
2960,209.853545074734
2959,200.122065763905
2958,189.848746982242
2957,187.744100625873
2956,188.274714544194
2955,196.675241267837
2954,205.935711739919
2953,207.211682382111
2952,204.466010893603
2951,180.215211684515
2950,152.757381750876
2949,167.568597355899
2948,196.3686590108
2947,204.070787008352
2946,203.272787569299
2945,195.700147896925
2944,185.565413459306
2943,181.550098934721
2942,180.824370821812
2941,180.223706644655
2940,179.703692375846
2939,179.411511230672
2938,179.25917693125
2937,178.832111737838
2936,178.152117754394
2935,164.738709036807
2934,136.356755820932
2933,119.847465795049
2932,119.532019764793
2931,122.455180677789
2930,131.281627843383
2929,142.936513370628
2928,160.182703378708
2927,173.255805924186
2926,173.649669009463
2925,174.968046642095
2924,182.685050983137
2923,189.647779664241
2922,190.189035660684
2921,188.739290000016
2920,180.896389667619
2919,172.606324973998
2918,170.415321905408
2917,169.822422394601
2916,169.202549636014
2915,167.477317463754
2914,136.791957149324
2913,94.7411209685802
2912,78.8007626321065
2911,78.4947726428736
2910,92.3374449861344
2909,116.637555900715
2908,125.886565663312
2907,117.818680391466
2906,112.873937389047
2905,112.612351914758
2904,117.265669536033
2903,132.32341599041
2902,144.163450256284
2901,144.713117338149
2900,141.850773639574
2899,127.44044298606
2898,115.016928199966
2897,125.720047906177
2896,139.140561341874
2895,135.714174467018
2894,127.856467987045
2893,125.064418666292
2892,124.031274980896
2891,99.869710239762
2890,60.646537679581
2889,15.0950721384353
2888,-36.7046541941372
2887,-55.6250214774339
2886,-26.3448263662885
2885,1.72373043994167
2884,24.3147983102375
2883,41.6689003226632
2882,42.9627315999517
2881,40.854974673539
2880,27.6315372779896
2879,14.3013602398091
2878,11.8078563396787
2877,13.7734648390675
2876,56.057423328051
2875,112.206231831804
2874,128.416873372003
2873,120.851485798025
2872,116.775196960259
2871,116.270851399564
2870,115.837279740181
2869,115.537295080901
2868,117.002867282151
2867,123.179034790023
2866,130.652115458345
2865,143.078212439199
2864,154.743423339613
2863,156.177033639243
2862,155.763197652723
2861,160.350001440649
2860,166.575432505599
2859,168.459037310322
2858,167.770780756417
2857,164.007920188914
2856,156.979669465531
2855,152.165349399555
2854,151.381358992614
2853,150.73417027002
2852,150.174742394857
2851,148.884280838773
2850,142.787673954433
2849,135.914465751885
2848,129.037953175578
2847,122.413227088289
2846,127.690109725537
2845,139.769191662997
2844,133.97976887018
2843,109.001947412697
2842,90.2412002964401
2841,83.4381164690107
2840,78.2398209683321
2839,77.6322521736819
2838,76.790541351868
2837,71.6315378339729
2836,65.1221114452211
2835,50.1859088631697
2834,32.6789611169989
2833,25.0894275777481
2832,24.8079173917844
2831,31.3866467926234
2830,48.3907946410592
2829,64.0097790396821
2828,75.595435483073
2827,84.4298745054659
2826,80.3057491329613
2825,74.9779295342129
2824,77.910666196492
2823,83.1770673057547
2822,85.0535484020896
2821,84.7852782220306
2820,79.7541706215429
2819,68.4282082772697
2818,61.6054685914748
2817,66.0118295255073
2816,70.940435041162
2815,76.1640398491326
2814,80.828087305453
2813,77.4782337545013
2812,71.4805954216801
2811,68.9631185826536
2810,68.7714888398871
2809,70.6590393032554
2808,75.6114169210766
2807,79.2870372483837
2806,79.3910547252983
2805,79.2281822895119
2804,78.8977958305421
2803,78.5243323202564
2802,78.1407471022466
2801,77.7610978752648
2800,77.3804298320765
2799,76.9906090332183
2798,76.6318568501949
2797,76.3528080633371
2796,77.6755523628583
2795,86.3192204316005
2794,95.0873496852074
2793,93.1900233727828
2792,87.6867124308393
2791,82.2381766414646
2790,76.954167847384
2789,76.9310667349306
2788,86.1713373441057
2787,94.8354467245387
2786,99.7806743095295
2785,103.824330141444
2784,104.248917731929
2783,103.665599452846
2782,100.155801048288
2781,94.7350854921292
2780,93.1796842743916
2779,97.3843108423408
2778,101.626144924769
2777,105.846733755923
2776,109.217495475935
2775,102.276092758092
2774,92.4802835933442
2773,88.6407903055642
2772,88.4150720196157
2771,91.3585499498175
2770,99.8458828247172
2769,106.195261213203
2768,102.479627794547
2767,97.6950558936381
2766,96.1680637718612
2765,95.6927840874848
2764,95.2144760777067
2763,94.7340497721825
2762,94.2596308114014
2761,93.7971151731697
2760,91.1506538891243
2759,75.4017331696672
2758,57.9452336901297
2757,52.2756391913947
2756,52.010451213319
2755,53.7375184750104
2754,57.9047130760517
2753,57.8303667188259
2752,45.5176322251162
2751,33.4832415942153
2750,30.995327213451
2749,30.8615725430039
2748,35.7513563589464
2747,43.919457674202
2746,56.1519117687099
2745,76.330208482163
2744,93.7712291157101
2743,95.6630428005446
2742,96.4299286733402
2741,130.257228847435
2740,178.656013698962
2739,186.628105228907
2738,141.485297254914
2737,104.366261325075
2736,97.0998723867459
2735,93.2968775736185
2734,98.1294098235597
2733,105.632001786781
2732,94.4257681115401
2731,66.2606008957319
2730,45.3383122625907
2729,43.8946608173284
2728,43.553821296002
2727,43.2551261972369
2726,43.0281620949152
2725,49.4482439033971
2724,60.516230374367
2723,68.6029300663044
2722,68.6779956748274
2721,69.0685036200661
2720,75.0488751343775
2719,82.154462246903
2718,84.6365551669469
2717,84.159145268004
2716,83.7123568292831
2715,83.3260546130529
2714,82.059534743111
2713,75.3866709423812
2712,67.7955713254188
2711,62.3433906653496
2710,58.3911321017662
2709,55.5856625580553
2708,55.1153665886913
2707,54.7200804193759
2706,54.3374882024097
2705,53.9736793707408
2704,55.751573978743
2703,58.9810505947694
2702,64.3376771802359
2701,74.4615781833283
2700,83.6516093467197
2699,84.8745618582568
2698,84.4687855400958
2697,80.072810626635
2696,72.6938665931572
2695,65.3644509626423
2694,58.0562513884967
2693,51.4284452187329
2692,49.7943251547352
2691,49.4256214390315
2690,49.0231169621972
2689,48.5905765283307
2688,50.4121515194646
2687,59.5954922323894
2686,68.8626140217064
2685,68.3771760603746
2684,64.5994623984666
2683,62.4083048749043
2682,62.0244070532019
2681,61.6475795057905
2680,61.2770534162628
2679,60.7292121030716
2678,53.6745325787067
2677,43.2863854492447
2676,35.3017668351811
2675,31.7000688195055
2674,28.526766198814
2673,27.7370718499789
2672,27.4549077884281
2671,27.1675131553985
2670,26.8802932837059
2669,26.6134438678736
2668,26.3829019210949
2667,26.2926183856976
2666,28.3999381075125
2665,31.2595121394181
2664,32.7023668378634
2663,32.4185570730538
2662,33.9950960900719
2661,44.6849807766964
2660,56.5340893394375
2659,60.2962147105932
2658,59.0093886534446
2657,60.0143393790643
2656,66.7974609471929
2655,72.0600178890435
2654,61.2697196310723
2653,45.6177740193681
2652,37.09073160564
2651,36.7087360595948
2650,36.363915381407
2649,36.1274304544237
2648,35.932691908855
2647,37.535476554388
2646,40.1330743013144
2645,41.9386078908069
2644,41.7044575315025
2643,41.7708542511152
2642,48.230813489178
2641,56.5968222044454
2640,59.1140578943803
2639,52.9591001268809
2638,47.5676984778181
2637,46.601586387256
2636,46.3731566739035
2635,46.0998208087117
2634,45.7914913164891
2633,45.4899050457931
2632,45.2149956536858
2631,44.9388911385917
2630,44.6674326515913
2629,44.3982222728158
2628,44.1053812478473
2627,43.7603707177365
2626,43.416927077595
2625,43.1087387029235
2624,42.8080410142246
2623,42.5118365290672
2622,42.2213558434042
2621,41.6107207360989
2620,38.9609565152528
2619,35.9400440398316
2618,34.402759604859
2617,34.1694559021298
2616,35.2648061432012
2615,42.2441090934846
2614,49.7442555093388
2613,49.0178322603797
2612,43.4463103404792
2611,39.7829389021142
2610,41.67380493524
2609,43.8777530455462
2608,44.3437576299214
2607,44.0595486655216
2606,44.5591996700541
2605,46.7767965532409
2604,48.9032377804451
2603,49.1593336043175
2602,48.8479468383088
2601,48.5303247673973
2600,48.2023915636722
2599,47.8746383134655
2598,47.555985111689
2597,47.23998844402
2596,49.1165026745455
2595,53.8147519410297
2594,57.3646676870902
2593,53.5166361990077
2592,48.3958086776867
2591,47.8993288511693
2590,52.4882031060553
2589,56.3871154813264
2588,56.6167134229697
2587,56.254225982429
2586,52.0855824643531
2585,44.4820492363683
2584,38.0673708581472
2583,37.0631697066149
2582,36.8403764539412
2581,56.6452801157013
2580,92.1630816670006
2579,114.492371959181
2578,82.4580274522253
2577,45.144883197694
2576,12.6343068666023
2575,-15.7155225584906
2574,-33.9903999096212
2573,-12.7829430644319
2572,12.5372147478238
2571,22.3307713376016
2570,22.0665409028651
2569,20.5561147022182
2568,14.1499083352028
2567,7.22935970620214
2566,9.76882890774583
2565,18.4578603243096
2564,26.5060757801939
2563,31.171231783302
2562,35.2986646594764
2561,36.9029016888917
2560,36.6376744927963
2559,36.7407301072675
2558,38.472083969753
2557,40.4343461833807
2556,41.1091574903729
2555,40.7879135125896
2554,39.7830846457067
2553,35.508681991931
2552,30.8920399483432
2551,28.5595062256849
2550,28.305208655716
2549,28.0577768160828
2548,27.8423745653302
2547,27.6324696876661
2546,27.4213245732007
2545,27.2058218166848
2544,26.9841280461474
2543,26.7320747766966
2542,26.4761645285969
2541,23.4622557152533
2540,17.0412573083521
2539,11.3851012834157
2538,13.390287637444
2537,17.3585412426812
2536,22.7689437294496
2535,30.7060441097408
2534,38.3545448105961
2533,41.6677781174594
2532,43.4692759425087
2531,45.2125589841915
2530,46.9501973390901
2529,48.6335388633681
2528,48.9664428278062
2527,48.6750720539531
2526,47.9048796768295
2525,45.7125628118862
2524,43.4054144439656
2523,38.7052839001969
2522,32.4923209394184
2521,27.1614943494862
2520,26.370807227702
2519,26.1692729673462
2518,23.9365127306362
2517,19.8330320994673
2516,16.1252713192501
2515,15.3076554407156
2514,15.0984347117611
2513,15.6826804212392
2512,17.3730926683694
2511,18.8606847019815
2510,17.6096866391231
2509,15.513677841427
2508,13.9414749932561
2507,13.650128004663
2506,13.4210997288664
2505,13.2366743142601
2504,13.0756424810108
2503,13.2699168521928
2502,14.8125665451488
2501,16.4772595545473
2500,17.1344698890438
2499,16.9162791892948
2498,16.6991664361145
2497,16.4838319113903
2496,16.2696262281517
2495,15.3898942453541
2494,13.3595163049565
2493,11.3757838676058
2492,10.6576388600843
2491,10.4454059025396
2490,9.84813929410312
2489,7.97241281949282
2488,5.99580769344967
2487,7.30306770807951
2486,10.7613496182284
2485,14.191840903301
2484,17.5808700184815
2483,20.9516780025118
2482,21.3326164338005
2481,17.6095980897022
2480,14.3134977426934
2479,17.3411175876165
2478,22.433006590784
2477,26.1764386734231
2476,26.1777266153924
2475,25.9200865816747
2474,21.5486164936758
2473,14.5842173219815
2472,8.33129909157438
2471,7.08458037996889
2470,6.91672260382271
2469,7.3446686149929
2468,8.86897158994167
2467,10.3273119391691
2466,9.48492868714814
2465,7.61276058456776
2464,6.06009328222813
2463,5.75627897214292
2462,5.58229076216162
2461,6.22005639763136
2460,7.69079386236337
2459,9.40625984471641
2458,13.6306181968527
2457,18.4969321554221
2456,20.5570783444724
2455,15.7823026214297
2454,10.6193902373588
2453,9.34442783329135
2452,10.8405664738412
2451,12.1487296594293
2450,12.2050901297242
2449,12.0250701518905
2448,10.1039633017509
2447,5.24445450758496
2446,0.407614691224426
2445,-2.47436335209701
2444,-4.2329341166753
2443,-5.74509359304593
2442,-6.02966451242804
2441,-6.14133831197985
2440,-6.26755995384655
2439,-6.41532800484058
2438,-6.47721683895954
2437,-4.3553182393917
2436,-1.29319774559615
2435,1.18143384685337
2434,1.28409718643486
2433,1.13107983976954
2432,-0.337253445472028
2431,-3.6188728865202
2430,-6.77641247563424
2429,-7.73213412133106
2428,-7.87780274720013
2427,-8.02014735932606
2426,-8.15014505115535
2425,-8.27819797414978
2424,-8.40041069683767
2423,-8.51753408047056
2422,-8.52797893835932
2421,-6.38993515846055
2420,-3.41813133755681
2419,-1.05527080824592
2418,-0.977749364310269
2417,-1.12261255164041
2416,0.0523116770196731
2415,2.97520521867447
2414,6.43354955214538
2413,25.2177660558768
2412,50.8210984498858
2411,67.8871940311103
2410,48.4928507110451
2409,24.759680336522
2408,9.81012287835581
2407,9.49203748679561
2406,9.51870169902338
2405,16.3423491263915
2404,26.6683259176488
2403,34.7046285671087
2402,30.6379238396619
2401,24.5075560219548
2400,15.8788574778038
2399,2.84420769800699
2398,-10.1016288539699
2397,-9.08887740553393
2396,0.854243881640455
2395,9.90281306502635
2394,11.5683652919881
2393,11.4320207720569
2392,11.2956319930774
2391,11.1581709918196
2390,11.0209254155872
2389,10.8790267362695
2388,10.7326245230581
2387,10.5870340826366
2386,10.4439065754356
2385,10.3023598704628
2384,9.92843870591127
2383,8.52122584711999
2382,6.97294204266721
2381,6.00530253866796
2380,5.89256234827624
2379,5.7897326160423
2378,5.67413876215035
2377,5.55252756166398
2376,5.43206634296026
2375,5.31572414505363
2374,5.20147186025292
2373,5.08376999174991
2372,4.95689750368551
2371,4.83055297429878
2370,4.70876671319745
2369,4.59182715283234
2368,4.47526701231187
2367,4.35057164026997
2366,4.22312735043446
2365,3.74534518663972
2364,1.20819665549589
2363,-1.58419519016177
2362,-4.78489558512721
2361,-8.86764450163232
2360,-12.9659918816106
2359,-12.7770242234239
2358,-8.86128475203708
2357,-4.99002515399036
2356,-3.12487053182183
2355,-1.90241876674372
2354,-0.278588737515021
2353,3.33144141914115
2352,7.16837176422725
2351,9.70872658075153
2350,9.68148018577118
2349,9.57101987820412
2348,9.4552762382804
2347,9.33527449990494
2346,9.21647541111068
2345,9.10641508289395
2344,8.99986659696166
2343,8.70892103223265
2342,7.4651303139209
2341,6.08012010031652
2340,3.20386154011465
2339,-3.14694976043085
2338,-9.60470708730003
2337,-12.8217182826782
2336,-12.8817728437694
2335,-12.9414181134508
2334,-13.0037581105571
2333,-13.0669031316665
2332,-12.8570374879263
2331,-10.7575549533361
2330,-8.32833882792177
2329,-5.58805562124817
2328,-1.97576884613612
2327,1.57943272152697
2326,3.67174178232232
2325,3.59478988070849
2324,3.49908951569641
2323,3.40428387773022
2322,3.31029714858694
2321,3.13846041976284
2320,2.08579738383714
2319,0.756949768300703
2318,-0.377558086017036
2317,-0.5812830978876
2316,-0.671147100245616
2315,0.0116979189422924
2314,2.32682281600574
2313,4.62923617833564
2312,6.39804829242023
2311,7.53006919848332
2310,8.59478301460279
2309,8.10774374803392
2308,6.80233961267909
2307,5.60127915043678
2306,5.29196086704236
2305,5.20850039404859
2304,5.12481616477507
2303,5.03749868808538
2302,4.95036178495478
2301,4.86479255712343
2300,4.7819453708116
2299,4.6997952613097
2298,4.06338015564191
2297,2.78321743582335
2296,1.56740737628078
2295,2.58269953023934
2294,4.90204497862423
2293,7.02906985083068
2292,7.48049489515478
2291,7.40106616619689
2290,7.17134096495458
2289,6.04254254633119
2288,4.77718379850027
2287,4.10435964107617
2286,5.1098378583683
2285,6.2214509828907
2284,5.96326711189186
2283,3.54872038083669
2282,1.11722581349983
2281,-1.24004955052738
2280,-3.58597475182946
2279,-5.89161455751925
2278,-5.84754414174328
2277,-4.76520860376842
2276,-3.83514256783849
2275,-4.6050293118933
2274,-5.8329706301015
2273,-7.02642151446483
2272,-8.21226277687974
2271,-9.425310286564
2270,-10.3454222863417
2269,-10.4368801605266
2268,-10.4820325736645
2267,-10.9515312370661
2266,-12.1474020551186
2265,-13.3254293013249
2264,-14.5077869587208
2263,-15.7268057536062
2262,-16.9455916178375
2261,-18.1335711379887
2260,-19.321883596003
2259,-20.414257584096
2258,-19.8384277276526
2257,-18.6794683165491
2256,-17.7908507834415
2255,-18.5845436791721
2254,-19.7087156386573
2253,-20.663079473807
2252,-20.8023928430051
2251,-20.844298004809
2250,-20.5741942873761
2249,-19.4840990220715
2248,-18.3575715657354
2247,-15.5967695128331
2246,-10.0821811707539
2245,-4.66861382906286
2244,-3.55734407732057
2243,-6.87570325143452
2242,-10.1731720714981
2241,-10.8870595331171
2240,-9.81770053385714
2239,-8.7095848010845
2238,-6.09913803102785
2237,-2.87936074937739
2236,-0.0604517117987074
2235,-1.98811739879598
2234,-5.28300473570287
2233,-8.53040066264289
2232,-10.9432655539834
2231,-13.1348973430806
2230,-14.932879322343
2229,-15.126678845907
2228,-15.1466719636322
2227,-14.1359911899918
2226,-10.0698117553033
2225,-5.80708207293067
2224,-4.2022872743328
2223,-8.45268355546285
2222,-12.8937528460994
2221,-16.2670748300905
2220,-18.4118735470241
2219,-20.5438688736254
2218,-19.3593196953569
2217,-15.1399516388227
2216,-10.9364770339226
2215,-8.63832714636539
2214,-7.60604156337331
2213,-6.61337329237977
2212,-7.02061384056614
2211,-8.11521802486677
2210,-9.12545766968539
2209,-8.63932484832914
2208,-7.60060347479355
2207,-6.56275938899749
2206,-5.5237318523955
2205,-4.4860530296231
2204,-3.55426627301212
2203,-3.41376278679539
2202,-3.43707427076656
2201,-3.74666169192128
2200,-5.63626675127311
2199,-7.76439406706774
2198,-9.51267060853949
2197,-9.70225662868276
2196,-9.7227705890968
2195,-9.74032611127925
2194,-9.74961100608589
2193,-9.75787763280675
2192,-9.18026388058587
2191,-7.16879708471556
2190,-5.09729044376833
2189,-4.08692452280177
2188,-5.09880216496866
2187,-6.1592713386802
2186,-6.80000955408817
2185,-6.81428549043421
2184,-6.82211855900799
2183,-6.83014406721955
2182,-6.83845931968723
2181,-6.84633748858622
2180,-6.85647579587037
2179,-6.8685618868429
2178,-6.88019376303885
2177,-6.89079886244344
2176,-6.90055618249858
2175,-6.91001582242867
2174,-6.92077931562772
2173,-6.93215276166667
2172,-6.97157163811087
2171,-8.31618504526182
2170,-10.3671543731746
2169,-12.3620942939898
2168,-12.9733605613463
2167,-12.9750151528242
2166,-12.9761773919085
2165,-12.9760442125348
2164,-12.9750886737907
2163,-12.8042215761329
2162,-9.77503467236036
2161,-5.72549342943107
2160,-1.97980058607534
2159,-1.90928216651347
2158,-2.91827080430749
2157,-3.70648532511222
2156,-2.33139946255904
2155,-0.327657123634868
2154,1.35923757351593
2153,0.0795551118090967
2152,-1.91964929399085
2151,-3.69159320366235
2150,-4.01623474102739
2149,-4.02137224584353
2148,-4.02536685822205
2147,-4.02330202327982
2146,-4.01967038782085
2145,-4.01637518881089
2144,-4.01675592273945
2143,-4.01749122479175
2142,-4.12966106185387
2141,-4.96839037796442
2140,-5.90544984142796
2139,-6.73023289200966
2138,-6.85143413408659
2137,-6.83577770535264
2136,-6.81949970420892
2135,-6.80168952105935
2134,-6.7832989133468
2133,-7.0046138746126
2132,-8.68203847252766
2131,-10.5479740979284
2130,-12.0714809816619
2129,-11.451524497068
2128,-10.4446906792574
2127,-9.57306321274991
2126,-9.42175206186585
2125,-9.38048461394063
2124,-9.33810311012063
2123,-9.29556058026929
2122,-9.25383819987994
2121,-9.10449164849328
2120,-8.25358754571444
2119,-7.30920750441389
2118,-5.89196693653534
2117,-1.02259847149424
2116,4.492638013614
2115,8.91959983524965
2114,6.63075651426783
2113,2.99298114522305
2112,-0.207161488102017
2111,-0.741828440452317
2110,-0.72080603654653
2109,-0.446770310777105
2108,1.74074263085933
2107,4.33651366645431
2106,6.69607352179347
2105,6.45544563539283
2104,5.59846063603044
2103,4.78490012540665
2102,4.61458857740973
2101,4.61453733694664
2100,4.6146370597012
2099,4.61600215567435
2098,4.61794027641958
2097,4.6198945178998
2096,4.6211354654933
2095,4.6223198618328
2094,4.62368950460011
2093,4.6274348086601
2092,4.63220563544205
2091,4.65978015771749
2090,5.21991898264089
2089,6.01159205340101
2088,6.78734891070798
2087,7.05975704878286
2086,7.05823652651315
2085,7.04475639290782
2084,5.61536280268486
2083,3.30819072808924
2082,1.03578173947505
2081,-0.409176302230787
2080,-1.13433430706707
2079,-1.85338007053619
2078,-1.815362256009
2077,-1.03294120476592
2076,-0.235065231082934
2075,0.872203702257952
2074,2.36906741540849
2073,3.84862509736013
2072,4.19170689491223
2071,2.74695688956581
2070,1.33210035679801
2069,0.915112063886123
2068,2.31877668364235
2067,3.75833016614872
2066,4.7954337772561
2065,4.84872187794874
2064,4.86126093817075
2063,4.71792411346839
2062,4.06178146391614
2061,3.3929043002447
2060,2.8615474156651
2059,2.83216940279882
2058,2.85699555356574
2057,2.97205083335877
2056,3.58968629494885
2055,4.27400315151204
2054,4.75516018645142
2053,3.77879295684151
2052,2.49637558546367
2051,1.30107697564369
2050,1.0644718535095
2049,1.09753206005851
2048,1.20147809351933
2047,2.62748525387095
2046,4.56990397943895
2045,6.47151289690376
2044,7.13442266553512
2043,7.14316700593663
2042,7.1568159657761
2041,7.88140604001949
2040,9.13687402388915
2039,10.3852735020104
2038,11.6235094462878
2037,12.8501350570271
2036,14.0342812117073
2035,14.7959329456611
2034,14.7968401557287
2033,14.7832182249684
2032,13.0670906743482
2031,7.23622204672457
2030,1.29188851834343
2029,-2.40165086046348
2028,1.16449064354527
2027,5.21523965500162
2026,7.61241250864956
2025,0.85807791339596
2024,-7.25747200277446
2023,-14.660570502908
2022,-16.3507026202741
2021,-16.8209375319522
2020,-16.9980354441044
2019,-11.8822941475967
2018,-4.95429649985359
2017,1.64384874414035
2016,3.00998433825779
2015,1.35746995184948
2014,-0.282275981646235
2013,-1.00367515693364
2012,-0.957891568621398
2011,-0.911691160658733
2010,0.502438927834916
2009,3.86935330044454
2008,7.2363427380355
2007,9.52945442341765
2006,9.63877669105178
2005,9.66638161707692
2004,10.3262481464828
2003,13.4164895822794
2002,16.7048163274258
2001,19.3908052823194
2000,18.8706336301229
1999,17.7878217040183
1998,16.7999577169223
1997,16.5704116340913
1996,16.5746928550333
1995,16.5802750789082
1994,16.5898746283217
1993,16.602001521893
1992,16.6150405657976
1991,15.479879894479
1990,13.3802676981701
1989,11.3510408983156
1988,9.9170132537347
1987,9.4098344402397
1986,8.91719264699019
1985,8.44140110191762
1984,7.95168039149671
1983,7.46500541652944
1982,6.9964979142904
1981,6.53136375589337
1980,6.05407814876179
1979,5.61947051246772
1978,5.57102673947632
1977,5.61256336623329
1976,5.68266695567579
1975,6.42904067352812
1974,7.46001849323762
1973,8.51600553244144
1972,9.28674570694539
1971,9.81613314013785
1970,10.3441070932735
1969,10.6914411089234
1968,10.7291179786916
1967,10.7623824514245
1966,10.911244199805
1965,11.4094193514992
1964,11.9441381385865
1963,12.4102512345107
1962,12.4882298761548
1961,12.5089715235464
1960,12.5572483642268
1959,12.9584557305608
1958,13.4577533000564
1957,13.9543452240634
1956,14.4532988134196
1955,14.9670243787789
1954,15.4788847458075
1953,15.7677564635812
1952,15.801275774663
1951,15.8342914792611
1950,15.6029098766676
1949,14.7086284197286
1948,13.8090215544068
1947,12.9793296020913
1946,12.4985252174638
1945,12.0692995889004
1944,11.6851457285082
1943,11.9875188679895
1942,12.4901984076193
1941,12.992137720694
1940,13.4936066410819
1939,13.9945851133544
1938,14.4949181329967
1937,14.8153821193824
1936,14.8563807460528
1935,14.8945944323838
1934,14.9301488569844
1933,14.9577889298008
1932,14.9851005870347
1931,15.0124246105773
1930,15.0386895781402
1929,15.0643683958987
1928,15.186869911063
1927,17.1817329688389
1926,19.8806526974123
1925,22.5654389226499
1924,24.0811822689586
1923,24.5364899618548
1922,24.9900647283059
1921,25.3116433083048
1920,25.3392451291577
1919,25.3559434692137
1918,25.299171717769
1917,24.8977841047514
1916,24.4646729895872
1915,24.0582586217066
1914,23.9699312432761
1913,23.9796832382972
1912,23.9909579936902
1911,24.2593079272201
1910,24.7175104989001
1909,25.1747235819354
1908,25.1935204606223
1907,24.3806784680495
1906,23.5507706216612
1905,22.9980808689005
1904,23.7214854278111
1903,24.6032798469033
1902,25.4228162756616
1901,25.3325798796037
1900,24.9389210333436
1899,24.547363303225
1898,24.6031785002318
1897,25.0272291574176
1896,25.4490801809415
1895,25.8723969184061
1894,26.3017429256619
1893,26.7296876731278
1892,27.1007178424579
1891,27.1691253176991
1890,27.1919740252151
1889,27.1876858625374
1888,26.6170731939358
1887,25.8240204528523
1886,25.0331995784211
1885,24.8510278938102
1884,25.2936630217489
1883,25.7354292119731
1882,26.0657980706388
1881,26.1008039996343
1880,26.1200047072126
1879,26.05624082647
1878,25.391496893052
1877,24.6098660160406
1876,23.851390176966
1875,23.8855738252897
1874,24.3251868846634
1873,24.7640372734839
1872,25.2121684355321
1871,25.674627720268
1870,26.1377620438756
1869,26.5118154425175
1868,26.5692398732536
1867,26.5953243809587
1866,26.6391843314413
1865,26.9614091674422
1864,27.3782703222706
1863,27.7936327860796
1862,27.7910668914433
1861,27.4087718969731
1860,27.0284433235661
1859,26.8724875960849
1858,27.2636981860852
1857,27.680725707031
1856,28.043844961437
1855,27.8177463038316
1854,27.4510584922472
1853,27.0884504721801
1852,26.9552319740198
1851,26.9683447870632
1850,26.9825404190636
1849,27.0028797244602
1848,27.0357719636618
1847,27.0691885292249
1846,27.0110335621994
1845,26.3806488520288
1844,25.6524445233993
1843,24.9400384813394
1842,23.7499993808867
1841,22.2578708362667
1840,20.7690994210586
1839,19.8395444017407
1838,19.8649973607918
1837,19.9062839133116
1836,19.8993589868042
1835,19.6074092435609
1834,19.2699666367265
1833,18.950426516993
1832,19.1275938764922
1831,19.5401589616045
1830,19.9631288700349
1829,20.6604430928655
1828,21.8196348706024
1827,22.9496720230341
1826,24.2194205151186
1825,26.3673582606234
1824,28.6503148213946
1823,30.8280742476027
1822,29.8515210479908
1821,27.3512780781672
1820,24.7806067047614
1819,24.7563926097095
1818,29.0491675954037
1817,33.418371402672
1816,37.5168586322114
1815,39.102129933592
1814,40.2161362390972
1813,41.2901153410035
1812,39.4618277017203
1811,35.8074059542357
1810,32.2639847172021
1809,30.4492454680495
1808,32.5446746450799
1807,34.8023554292521
1806,36.83484229183
1805,37.5043162760742
1804,37.8930245932797
1803,38.2763733392637
1802,38.0309979270318
1801,37.3298499207876
1800,36.6089036327613
1799,35.9168763542777
1798,35.2384216156091
1797,34.5403249955573
1796,33.9000670778054
1795,33.7822605292931
1794,33.8282600990935
1793,33.8742074248677
1792,33.9170710994325
1791,33.9566084595296
1790,33.9960470120337
1789,34.0385602586049
1788,34.094851189191
1787,34.1531238761738
1786,34.2226625117074
1785,34.740150288257
1784,35.4916578274862
1783,36.2206893027191
1782,37.0644099584118
1781,38.1644040626762
1780,39.2376350723469
1779,40.147357528343
1778,39.760760129415
1777,39.1022300095143
1776,38.4457653920391
1775,38.529223989028
1774,39.2643006859032
1773,40.0198311730373
1772,40.4710748313602
1771,39.8891785425956
1770,39.2019419019698
1769,38.5757507801371
1768,38.9130238745581
1767,39.6403165288272
1766,40.3667561154315
1765,40.3578924634636
1764,39.0376137714679
1763,37.6925368633904
1762,36.6173798225992
1761,37.8849906277264
1760,39.7104682532469
1759,41.4838124703678
1758,41.4415652176988
1757,39.7588256449828
1756,38.0776410047445
1755,36.6840008201981
1754,36.5836939721052
1753,36.608766459956
1752,36.6393727320421
1751,36.8976070632734
1750,37.2669308874008
1749,37.6355140269184
1748,37.4226582735412
1747,35.8056073760994
1746,34.0859860206479
1745,32.5198173153186
1744,32.1999285957372
1743,32.2276325021034
1742,32.2552774438358
1741,33.2717578967134
1740,35.6555575098924
1739,38.0398137320706
1738,40.2566857078027
1737,41.4430065442791
1736,42.4297246409741
1735,43.4113192570425
1734,43.8654056165264
1733,43.8659798678036
1732,43.866565117192
1731,43.9830136552934
1730,44.6026543172267
1729,45.2733365130496
1728,45.9250334965335
1727,45.7545917410912
1726,45.1072322382851
1725,44.4615205896842
1724,44.2303048170377
1723,45.1527610804413
1722,46.150185435471
1721,47.1057180834271
1720,47.141953213699
1719,46.8190403038753
1718,46.4970521993494
1717,46.1686378580892
1716,45.8266331554873
1715,45.4858500599793
1714,45.0925094953561
1713,43.7471161999294
1712,42.1209413390513
1711,40.5037928163272
1710,40.2404479524716
1709,42.135578020239
1708,44.0461787484089
1707,45.7143932588263
1706,45.4979874110038
1705,44.8683131682066
1704,44.2211020109396
1703,43.8570012915909
1702,43.8538249233409
1701,43.8513956365153
1700,43.8206738595439
1699,43.5611709286738
1698,43.2576780690846
1697,42.9550247421741
1696,43.2559066583132
1695,44.1550587991593
1694,45.0780407191793
1693,45.8891409577249
1692,46.0183843842164
1691,46.0383343663257
1690,46.0583926645863
1689,46.8291297785703
1688,48.323838419731
1687,49.766163634139
1686,51.1627669591547
1685,52.1033202661771
1684,52.9652987020771
1683,53.8225133906462
1682,54.0427079874902
1681,53.7215516420815
1680,53.4014940335581
1679,53.130863997844
1678,53.0694612273033
1677,53.0401937004284
1676,53.0125401003824
1675,53.1331497890251
1674,53.3899918493398
1673,53.6384812160302
1672,53.6060962883061
1671,52.0545245283631
1670,50.322859841459
1669,48.5448493349176
1668,48.4474602622723
1667,49.8545301870387
1666,51.3003423157559
1665,52.6264535170926
1664,53.2579720959163
1663,53.8021253496195
1662,54.3438383337805
1661,54.3024504878417
1660,53.6878731025636
1659,53.0571477078631
1658,52.5222690914527
1657,52.6286678452095
1656,52.8546663552997
1655,53.0792903507165
1654,52.9425828412008
1653,52.375170532926
1652,51.7905771264976
1651,51.253995153703
1650,51.1196008986655
1649,51.0711290276347
1648,51.0207859123536
1647,50.9727952592076
1646,50.9302173165349
1645,50.887832443629
1644,50.8429349850815
1643,50.7890677025959
1642,50.7349221288967
1641,50.6810557868171
1640,50.7949239128486
1639,51.2589786819623
1638,51.7186201919215
1637,52.1609040745347
1636,52.2588317964479
1635,52.2096892824818
1634,52.1607385868716
1633,52.0479282197879
1632,51.7479739888755
1631,51.428093690267
1630,51.1170717467323
1629,51.1352528582214
1628,51.3235747798332
1627,51.5105886661797
1626,51.6599751751466
1625,51.6409377361438
1624,51.6041837181598
1623,51.5675020365975
1622,51.41062104725
1621,51.1474564467912
1620,50.8763627860173
1619,50.6609192588227
1618,50.7990507478797
1617,50.9961287290764
1616,51.1920162726827
1615,51.3964298163659
1614,51.6212161738912
1613,51.845165644269
1612,52.0618400117125
1611,52.2786161098358
1610,52.4947693769894
1609,52.7099855334074
1608,52.8665925099589
1607,52.8716478466321
1606,52.8687615868511
1605,52.8696247196085
1604,53.0044071355616
1603,53.2071705565305
1602,53.4089312771688
1601,53.534596778188
1600,53.3175068843612
1599,53.0505119773984
1598,52.7842531318911
1597,52.2805958728741
1596,51.551865985085
1595,50.8253970019083
1594,50.138641782998
1593,49.793487636552896
1592,49.5300229039778
1591,49.2675264466231
1590,49.3018928260811
1589,49.9913572918159
1588,50.6996628462298
1587,51.2962217270339
1586,49.6702713510494
1585,47.0930639069925
1584,44.5278904563328
1583,42.7966862172563
1582,44.2923316910682
1581,46.1079484440575
1580,47.9164776549312
1579,49.1615926949251
1578,49.8276873731508
1577,50.4915042535481
1576,51.1853977434877
1575,52.2267575191902
1574,53.3614679856082
1573,54.5295786880519
1572,55.5560123433478
1571,56.2638174155027
1570,56.9632594706455
1569,57.6510875549421
1568,57.8808779998101
1567,57.8723654915692
1566,57.8636762170502
1565,57.8470210471911
1564,57.7919832717759
1563,57.7318794553875
1562,57.6718696466912
1561,57.5370104287225
1560,57.3012516466792
1559,57.0652608014641
1558,56.8478577172605
1557,56.9396995833318
1556,57.1411252436464
1555,57.3418587556025
1554,57.5323713319619
1553,57.6898652796366
1552,57.843786309018
1551,57.9967226570606
1550,58.0450240806734
1549,57.9982216174782
1548,57.951389591608
1547,57.8911959799286
1546,57.7059444945079
1545,57.4870519199077
1544,57.2613535711362
1543,57.0347367217897
1542,56.8050358754089
1541,56.5753385950506
1540,56.3460670844853
1539,56.2341457028893
1538,56.2201338125137
1537,56.2059384614516
1536,56.2077970681902
1535,56.3572198336895
1534,56.5411793455614
1533,56.7243906705655
1532,56.7861688388718
1531,56.5641930633291
1530,56.3378489101326
1529,56.1130207693842
1528,56.346981676235
1527,56.956630508255
1526,57.5644771361113
1525,58.187357633143
1524,58.9585211042278
1523,59.7623237581624
1522,60.563406156979
1521,61.059271036832
1520,60.8488204536869
1519,60.6089563605855
1518,60.3612156957465
1517,59.6593460697354
1516,58.5836434156287
1515,57.5104748721616
1514,56.619249133252
1513,57.4097748788573
1512,58.5694149135868
1511,59.7248164097994
1510,60.3343872005148
1509,59.1652659707351
1508,57.8760091160328
1507,56.591433682819
1506,56.0837643013825
1505,56.2591845447949
1504,56.4340009476556
1503,56.6441887498102
1502,57.2982026685353
1501,58.0989469192609
1500,58.898284550131
1499,59.561951997506
1498,59.8025115494503
1497,60.0123536573284
1496,60.221951754412
1495,60.3125997245966
1494,60.2487736918737
1493,60.1858037424889
1492,60.1320028587645
1491,60.3615045611029
1490,60.7241491831834
1489,61.0855772143938
1488,61.3900150132852
1487,61.4342801705765
1486,61.4402628998802
1485,61.4460276740194
1484,61.4981986534444
1483,61.6500497539168
1482,61.8095375775797
1481,61.970608190966
1480,62.4796035773028
1479,63.2087545137151
1478,63.9358073857656
1477,64.5819620277184
1476,64.0764058618672
1475,63.2766186427843
1474,62.4780372913189
1473,61.8159653074742
1472,61.7454932744845
1471,61.7296424376881
1470,61.7135651242464
1469,61.7035144001046
1468,61.7021435169818
1467,61.699951636018
1466,61.6995325022082
1465,61.7972394946006
1464,61.9479851396751
1463,62.0926211137793
1462,62.1517516796667
1461,61.5228050283098
1460,60.7409176867709
1459,59.9824476464071
1458,59.4063844953784
1457,59.3551613143799
1456,59.3404554172914
1455,59.3255197242497
1454,59.3869748798511
1453,59.5349005265967
1452,59.6823965222851
1451,59.8299438135527
1450,59.827131632235
1449,59.7554494131907
1448,59.6837271486339
1447,59.5737200153607
1446,59.2218985900226
1445,58.8223570098244
1444,58.4110756200359
1443,58.1018788086824
1442,58.0618107686727
1441,58.0372784944378
1440,58.0124531502311
1439,57.7421593277431
1438,57.1330513636857
1437,56.5410881524221
1436,55.957851527682
1435,55.7214025607884
1434,55.6825114447209
1433,55.6434231824603
1432,55.6405290861925
1431,56.0259513061536
1430,56.5226797396842
1429,57.0006503596294
1428,57.276200212353
1427,56.7599263606834
1426,56.1774866315028
1425,55.5957984668687
1424,55.4080062719623
1423,55.9083446749858
1422,56.4193805662294
1421,56.9292601479467
1420,57.4360363652655
1419,57.957284122151
1418,58.4599831295293
1417,58.9903292462919
1416,60.0124499492125
1415,61.2200945017763
1414,62.464277069737
1413,63.4098816418046
1412,62.7088032135114
1411,61.7420819810861
1410,60.7780895398236
1409,60.3519541081384
1408,61.6380684344145
1407,63.0819894114871
1406,64.4778913277994
1405,65.2981477621869
1404,65.2721182973173
1403,65.235603865802
1402,65.1958935813765
1401,64.2302028994638
1400,62.5258656207387
1399,60.8768320568293
1398,59.3019925236104
1397,58.8388475584548
1396,58.7830561438761
1395,58.7270817644789
1394,58.7710404634175
1393,59.475229487165
1392,60.307695257262
1391,61.1383553879313
1390,61.7840107404204
1389,61.7998225143937
1388,61.7567916180137
1387,61.7135353179344
1386,62.0356021060369
1385,63.0559407093006
1384,64.0970944430983
1383,65.1384781440074
1382,65.7143493235547
1381,65.8125965428914
1380,65.9056275445056
1379,65.9879638550128
1378,65.7541372714902
1377,65.347106633223
1376,64.9405850676808
1375,64.570913539919
1374,64.7106109205731
1373,65.0020843923061
1372,65.2927391276984
1371,65.4983994165028
1370,65.1781858352495
1369,64.7756790613041
1368,64.3736178222695
1367,64.0463138302161
1366,63.9649866539975
1365,63.9007430606276
1364,63.83630517626
1363,63.77448565201
1362,63.7178803633559
1361,63.6609635404903
1360,63.6038323708819
1359,63.5431556015602
1358,63.4784808471115
1357,63.4136013253558
1356,63.3527630703227
1355,63.7064021224513
1354,64.3137495448614
1353,64.8980929986311
1352,65.4425636639017
1351,64.8490753106349
1350,63.7915096076304
1349,62.7348723377145
1348,61.7811322363976
1347,61.5453902354071
1346,61.4974957706995
1345,61.4493711543316
1344,61.564961134403
1343,62.5551594310004
1342,63.6607910231384
1341,64.7264398225727
1340,65.5623914247899
1339,65.5461478862951
1338,65.4595496688823
1337,65.3718763100889
1336,65.5863609926952
1335,66.4668067110501
1334,67.3643468089996
1333,68.2278898831305
1332,68.7254720588309
1331,68.6625136280878
1330,68.5939095299147
1329,68.5249185030963
1328,68.4660586747942
1327,68.4159649098714
1326,68.3660920454724
1325,68.3078891270615
1324,67.6122148504484
1323,66.5429407501176
1322,65.5084325292976
1321,64.5133539981441
1320,64.8526400922825
1319,65.7049871858676
1318,66.5848981248412
1317,67.3074459281907
1316,66.2850284682109
1315,64.7470422990172
1314,63.2123689974293
1313,61.8850589295177
1312,61.7340822829453
1311,61.8276698015186
1310,61.9207596301499
1309,61.9884101488683
1308,61.9488725166246
1307,61.8931705456906
1306,61.8369721141196
1305,61.8017109702765
1304,61.8395152003733
1303,61.8802471068843
1302,61.9203379122937
1301,61.9365214083071
1300,61.8791231019408
1299,61.8166624205636
1298,61.7541033672712
1297,61.8359599699703
1296,62.1893620842911
1295,62.5473939887576
1294,62.9179957555472
1293,62.927119300753
1292,62.3980434480669
1291,61.8657855629854
1290,61.3188071266833
1289,60.63859284722
1288,59.8253475096033
1287,59.0126281953151
1286,58.1758933824085
1285,57.5734873321882
1284,57.1929928194302
1283,56.8129953522527
1282,56.4249255221194
1281,56.2281835185147
1280,56.1662266138311
1279,56.1040516464045
1278,56.0465353493136
1277,56.1909464934684
1276,56.4386579745019
1275,56.6859388709613
1274,56.9222192438372
1273,56.7195835424662
1272,56.2966150311625
1271,55.8862652956394
1270,55.4916328730856
1269,55.4338054058485
1268,55.5205672203588
1267,55.606895248845
1266,55.5912667795884
1265,54.1040432469382
1264,52.1237697191081
1263,50.0815493546869
1262,48.1394924776957
1261,47.3370904873536
1260,46.8272137507756
1259,46.3179578511288
1258,45.8381713024049
1257,45.6851919780024
1256,45.6231193579621
1255,45.5607581794802
1254,45.4997190004181
1253,45.4515168969269
1252,45.4060752820779
1251,45.3610931884641
1250,45.3486122111167
1249,45.5533007640746
1248,45.7979460013176
1247,46.0423282351614
1246,46.25289364257
1245,46.2276856848946
1244,46.156635033697
1243,46.0853877004101
1242,46.0164180614671
1241,45.9607344436636
1240,45.9069574783846
1239,45.8529720522994
1238,45.8345321131794
1237,46.0323560836667
1236,46.2759225921166
1235,46.5190819592333
1234,46.6410481156739
1233,46.2123618231235
1232,45.7091308325454
1231,45.206322195069
1230,44.7842357015823
1229,44.7910455455849
1228,44.8607158835849
1227,44.9299146495315
1226,44.9422647101226
1225,44.6529425404406
1224,44.327261368179
1223,44.0011211447576
1222,43.7141421778582
1221,43.6203463806636
1220,43.5520713244149
1219,43.4835968316903
1218,43.3946644597746
1217,43.1975601285823
1216,42.984521466372
1215,42.7714859980229
1214,42.5758926356326
1213,42.4833981789305
1212,42.407526469469
1211,42.3314685581872
1210,42.2778281597635
1209,42.3493327807364
1208,42.4361673680266
1207,42.5227808173161
1206,42.6108290394998
1205,42.708097263521
1204,42.806780516062
1203,42.9054188451593
1202,42.9662881115666
1201,42.7864991083605
1200,42.564378124778
1199,42.3423521784192
1198,42.2084370958741
1197,42.7147845106259
1196,43.3476260470926
1195,43.9790728692342
1194,44.5475895495848
1193,44.5949366121394
1192,44.5245704309297
1191,44.4540117603689
1190,44.3937663380131
1189,44.4379925040266
1188,44.5087649071968
1187,44.5792116028151
1186,44.6296872303786
1185,44.4438606296285
1184,44.189524232134
1183,43.9356997327078
1182,43.6902377584841
1181,43.562639916848
1180,43.4740682066611
1179,43.3853330397471
1178,43.2759177250234
1177,42.7736805459373
1176,42.1413208460893
1175,41.5102660535592
1174,40.8546967261968
1173,39.8518547514571
1172,38.6587647237694
1171,37.468092280103
1170,36.2873438726312
1169,35.7688360507109
1168,35.6749707884077
1167,35.5809831171182
1166,35.488025626802
1165,35.6399138997325
1164,35.9764089236555
1163,36.3122557223351
1162,36.6474545803568
1161,36.7545408242282
1160,36.6577004722051
1159,36.5607412051266
1158,36.4631233023418
1157,36.3709141121947
1156,36.2862695632292
1155,36.2015117177627
1154,36.1165927958823
1153,36.0378528805805
1152,35.9694883907047
1151,35.9011136853034
1150,35.8320950341285
1149,35.9072282100661
1148,36.3415165953547
1147,36.7914964865522
1146,37.2402139283981
1145,37.4291261787623
1144,36.8457332814483
1143,36.2126931280146
1142,35.5993213368674
1141,35.1192839393357
1140,35.2277970755467
1139,35.4103615704525
1138,35.5923338953573
1137,35.7377311157731
1136,35.6784416170666
1135,35.5871239114716
1134,35.4956616517983
1133,35.4452654441702
1132,35.7963827446359
1131,36.2482227323012
1130,36.6995027066851
1129,37.0850001604308
1128,36.631691857452
1127,35.9118887636607
1126,35.1710383215883
1125,34.4446432857295
1124,34.1591731778566
1123,34.0844307451518
1122,34.0095310226063
1121,33.9345184318454
1120,33.7762734467908
1119,33.5554259375333
1118,33.3346912271457
1117,33.1184867281212
1116,32.9547777539215
1115,32.8518456134607
1114,32.7489991255041
1113,32.6460540535754
1112,32.511257463218
1111,32.3207663982839
1110,32.1258119780883
1109,31.9306602259128
1108,31.8052736583272
1107,31.8656074407284
1106,31.9410735898082
1105,32.0166710259946
1104,32.0592582079558
1103,31.9697803342675
1102,31.8664196358649
1101,31.7625095104857
1100,31.7304368121674
1099,32.1626911017165
1098,32.6840668003432
1097,33.2246889643085
1096,33.7497094200662
1095,34.0810787562053
1094,34.3560831218846
1093,34.6429021762006
1092,34.947665274042
1091,35.8783652134904
1090,37.1432590141687
1089,38.4528933916957
1088,39.7587727246188
1087,40.2967749117074
1086,40.2030363292995
1085,40.1094211307784
1084,40.0154131827594
1083,39.9257060908513
1082,39.8441313877931
1081,39.7625824862567
1080,39.6802231752894
1079,39.1393700383036
1078,37.2418313036046
1077,35.3200192164728
1076,33.3993679695643
1075,31.7022839219167
1074,31.4295953914676
1073,31.3508111597028
1072,31.2719032696269
1071,31.0814267654864
1070,29.8982067480562
1069,28.4634223597911
1068,26.9844285679679
1067,25.5806052055606
1066,25.1636890187096
1065,25.2105486175604
1064,25.2526232908667
1063,25.2945357920661
1062,25.3982573680922
1061,25.5437660773115
1060,25.6885960408984
1059,25.840939608022
1058,25.8941548783314
1057,25.7920858810649
1056,25.6875806899103
1055,25.5833430803506
1054,25.4824000216747
1053,25.3923521553818
1052,25.3029334079514
1051,25.2134025639525
1050,25.1249319362942
1049,25.0449106729359
1048,24.9669038799041
1047,24.8882281054954
1046,24.8000114925218
1045,24.5389883365889
1044,24.2207464412724
1043,23.9023975579712
1042,23.5837751870231
1041,23.1898033133749
1040,22.7265366106726
1039,22.2760181095601
1038,21.8259558043632
1037,21.5054856006931
1036,21.3982637929074
1035,21.2928404277835
1034,21.1877404227347
1033,21.0618222903262
1032,20.869994748002
1031,20.6725590172199
1030,20.4714485941999
1029,20.3090648629575
1028,20.4093038652897
1027,20.5578178170657
1026,20.7059971197184
1025,20.862353679652202
1024,21.0124620771381
1023,21.1633453017554
1022,21.3140091834514
1021,21.464454485351
1020,21.5467790175961
1019,21.5645224847755
1018,21.5819260696431
1017,21.5989908142821
1016,21.6188926324882
1015,21.6329669765564
1014,21.6466295064607
1013,21.6599325962891
1012,21.6529292276888
1011,21.5539108714118
1010,21.4423069482688
1009,21.330673504894
1008,21.2322227245739
1007,21.3116756829719
1006,21.4511515079676
1005,21.5902972945429
1004,21.727659369525
1003,21.6056917492148
1002,21.2800889050507
1001,20.9469416372681
1000,20.62181642354
999,20.4196300617573
998,20.4291331698209
997,20.4428379874925
996,20.4562426119271
995,20.5089417590154
994,20.719894596985
993,20.9481847162926
992,21.1752834798729
991,21.3869410337228
990,21.5605232931239
989,21.7185384686356
988,21.8768807676557
987,22.0355053547763
986,22.0510660730469
985,21.9512386287772
984,21.8513537751816
983,21.7514123626577
982,21.6471314311986
981,21.5340667160181
980,21.4206735747962
979,21.3072622863986
978,21.196021603371
977,21.0955430724223
976,20.9966210436045
975,20.8976477712948
974,20.7926016483166
973,20.5359349846446
972,20.2177249612268
971,19.89967173425
970,19.5817762035092
969,19.2594137246817
968,18.9324620716045
967,18.6136345939418
966,18.2874804572702
965,18.0116944020099
964,17.8918326632254
963,17.7816909024105
962,17.6715380312387
961,17.5622762353182
960,17.4608906437089
959,17.3612886156402
958,17.2616518294119
957,17.1620070672591
956,17.0640045187245
955,16.9668580311043
954,16.8698645925167
953,16.7728380660995
952,16.6753500314925
951,16.5770153196056
950,16.4784845126405
949,16.3800682934757
948,16.3103210336972
947,16.4099429102296
946,16.5345532898315
945,16.6510654901839
944,16.7776021505205
943,16.968480238285
942,17.178266960274
941,17.3985159231302
940,17.6180139505464
939,17.7526614002664
938,17.7667215978705
937,17.7753394502851
936,17.7878942486777
935,17.8318382715215
934,18.0020113198081
933,18.195470641782
932,18.3875994298039
931,18.5539399721527
930,18.3725812444911
929,18.048638313074
928,17.7326604848855
927,17.4096780250076
926,17.3339489840465
925,17.5620244037209
924,17.802658574054
923,18.0434858706018
922,18.2155055345516
921,18.1473634509426
920,18.0524425391596
919,17.9570887793224
918,17.8275194607126
917,17.1143558890104
916,16.2053655760391
915,15.2962275613691
914,14.3581890955905
913,13.6375148069405
912,13.2212799608175
911,12.7955602028428
910,12.3706062473914
909,12.024353668257
908,11.9842456184548
907,11.9807961379182
906,11.9736781926672
905,11.9643341534502
904,11.8934014267358
903,11.7933378563872
902,11.6932026805349
901,11.5930875435108
900,11.928860059486
899,12.9846062635872
898,14.0133663279594
897,15.0419610460994
896,15.9586361944341
895,16.0096783132319
894,15.9122149771497
893,15.8151352769721
892,15.7180794049633
891,15.6206190405343
890,15.5231474305242
889,15.4257043828662
888,15.3286460886738
887,15.2288068713111
886,15.1227315792688
885,15.0165092461327
884,14.9103661482202
883,14.8031088165637
882,14.6860611867041
881,14.5668718107302
880,14.4473374548553
879,14.3278949954439
878,14.2109305375913
877,14.0957017536368
876,13.9805500133147
875,13.8651765376575
874,13.7973885460171
873,13.886002020354
872,13.9865888474501
871,14.0869970940793
870,14.1759512719201
869,13.9126411754476
868,13.5162081927066
867,13.1202596186795
866,12.7247964169871
865,12.5007361638936
864,12.5837500718132
863,12.6657994780506
862,12.7473844357099
861,12.8084431948468
860,12.7191599428381
859,12.5988732912216
858,12.4787076915497
857,12.3579076821476
856,11.8740873477377
855,11.1050062878522
854,10.33641539474
853,9.54457497446646
852,8.90646570416238
851,8.77669552320639
850,8.6819494564673
849,8.58727557924577
848,8.49248845146786
847,8.39243816465248
846,8.29000986160525
845,8.18766837839258
844,8.08542862133531
843,7.9141291703891
842,7.61272752167046
841,7.30912924676617
840,7.00628988735107
839,6.71830382553883
838,6.58715185757105
837,6.49925618064356
836,6.41102069358622
835,6.32287418946795
834,6.36964283819619
833,6.56807835301917
832,6.76645724763672
831,6.96478088017832
830,7.17478713793306
829,7.46782686972054
828,7.7719843144355
827,8.0619451509606
826,8.34967240074076
825,8.40692829116491
824,8.31124737376386
823,8.21567004540753
822,8.12019749262311
821,8.06124831916606
820,8.13257826839146
819,8.21520677500099
818,8.29749756726089
817,8.37712227129862
816,8.34883198891371
815,8.26217082499091
814,8.17509401414697
813,8.08813300590415
812,8.05366711027526
811,8.1402505309877
810,8.2314859213281
809,8.32255577714614
808,8.4178703437675
807,8.58594867109216
806,8.77977510301286
805,8.97355478534073
804,9.1672891230202
803,9.08185619996741
802,8.45137893977621
801,7.80766020237052
800,7.16437398923607
799,6.53072836034225
798,6.01413478998111
797,5.53386444511765
796,5.05492791647661
795,4.5773238652183
794,4.51607997540861
793,5.15013206217029
792,5.79403628272583
791,6.43684914189316
790,6.97223997233129
789,6.41792617872632
788,5.58100195124681
787,4.74603641183838
786,3.91302840646076
785,3.07818542680705
784,2.24028946220394
783,1.40513267746797
782,0.572754247944536
781,-0.108585022562452
780,0.500161536667743
779,1.40551224363757
778,2.30910608110091
777,3.2109458644415
776,3.95574161299289
775,4.49496291383745
774,5.03225548190763
773,5.568553976403
772,6.06072466472922
771,6.22089427390537
770,6.31167903852456
769,6.40239816148729
768,6.49305303944669
767,6.41773642337166
766,6.14293895046623
765,5.86837280132049
764,5.59435093774673
763,5.34108116296734
762,5.23080970786905
761,5.14813852098974
760,5.06564888029471
759,4.98286969080217
758,4.57259342301683
757,3.68343321381038
756,2.7922872950139
755,1.90295405834355
754,1.09564483743744
753,1.01576431366404
752,1.10878518871377
751,1.20175311629322
750,1.29466954591392
749,1.32214814438254
748,1.25787299294229
747,1.19229848391821
746,1.1269465063167
745,1.07728072061744
744,1.20830283170142
743,1.39307675780193
742,1.57776464507272
741,1.76236798501566
740,1.88231978155447
739,1.88768944348161
738,1.89093653264599
737,1.89093255428781
736,1.89135922067061
735,1.90187646311366
734,1.91507376500429
733,1.92843057365821
732,1.94194833766918
731,1.95290343618046
730,1.95443181789444
729,1.95581285434147
728,1.9606223408507
727,1.96573925820092
726,1.97839565374811
725,1.99487305153509
724,2.01154198933747
723,2.02465980457227
722,2.03462662287385
721,2.03567657042035
720,2.03554456967134
719,2.03547694561378
718,2.03596052217343
717,2.08390479466305
716,2.15660209011548
715,2.22910462000087
714,2.30730254955277
713,2.36331953749387
712,2.30386610998077
711,2.22812711999233
710,2.15226095676833
709,2.07664651107876
708,2.00033242976415
707,1.92268411642393
706,1.84529118194445
705,1.7678845800438
704,1.69692387300497
703,1.69212432573533
702,1.70512084482917
701,1.71828517167423
700,1.72815115256077
699,1.62756262334313
698,1.29352423184099
697,0.952429705279978
696,0.612270666637052
695,0.282371055651123
694,-0.0430132533976016
693,-0.375032796671482
692,-0.706258500103984
691,-1.02771991904739
690,-1.25191749507534
689,-1.10838707518301
688,-0.927401314910518
687,-0.746507323892067
686,-0.574957631335963
685,-0.758181743372971
684,-1.25005584361925
683,-1.74091217677694
682,-2.21597638339248
681,-2.6500402078546
680,-2.78482764657936
679,-2.85263533817887
678,-2.9203833151709
677,-2.98783222825918
676,-3.08263559426986
675,-3.22646870017653
674,-3.36830051503234
673,-3.50974799280399
672,-3.65104006811323
671,-3.74026651415941
670,-3.80814206722722
669,-3.87557607556769
668,-3.9426945986374
667,-4.0066373509767
666,-4.05863090452354
665,-4.10856076313031
664,-4.15816348391443
663,-4.20814718641596
662,-4.25925761435088
661,-4.31085664234657
660,-4.36273234632426
659,-4.41427940453368
658,-4.4643211214883
657,-4.5093245952967
656,-4.55257989822779
655,-4.59460583799273
654,-4.63627682625359
653,-4.61438174132235
652,-4.43979822870716
651,-4.25066643490492
650,-4.07064092173901
649,-3.89014216059333
648,-3.65739397361333
647,-3.40886533182285
646,-3.160759203843
645,-2.90147995595287
644,-2.72173368957768
643,-3.00917831399429
642,-3.3880468139535
641,-3.75499993653056
640,-4.12126387732701
639,-4.26949367723685
638,-4.01655214885936
637,-3.75532709774552
636,-3.48216091256726
635,-3.21873743735894
634,-2.85154279429087
633,-2.41480619701016
632,-1.99605740966443
631,-1.57746776557667
630,-1.26082204315086
629,-1.53892696637796
628,-1.91435629782179
627,-2.27778098612245
626,-2.64040046529304
625,-2.73809852793813
624,-2.40939662771369
623,-2.07530847914456
622,-1.72694517725133
621,-1.40105898911399
620,-1.33049351875326
619,-1.37390921976191
618,-1.4169339934596
617,-1.45897704417971
616,-1.52655680114476
615,-1.7268462861398
614,-1.94369225210346
613,-2.15968915265421
612,-2.38073032963874
611,-2.56332944777841
610,-2.69340822813027
609,-2.82244176052335
608,-2.95089983039512
607,-3.07946750397208
606,-3.14391024581165
605,-3.17752739010242
604,-3.21072795599319
603,-3.2435102858595
602,-3.2938928298571
601,-3.46634653400294
600,-3.66428719269224
599,-3.85631940371677
598,-4.04772438730066
597,-4.19014872698705
596,-4.23177431573085
595,-4.27057407538705
594,-4.30894400678948
593,-4.34427924006602
592,-4.23870326470995
591,-4.04306928045039
590,-3.84719785380096
589,-3.65108708522245
588,-3.48972982632649
587,-3.66603592684851
586,-3.91926683394734
585,-4.17190904539756
584,-4.42396116259941
583,-4.69313543862329
582,-5.01440898841857
581,-5.3389973836284
580,-5.67349601715299
579,-5.99685892319794
578,-6.01555251005586
577,-5.73044211234268
576,-5.44485832373485
575,-5.15879852300716
574,-4.89799139977057
573,-5.05953640133928
572,-5.3821057119733
571,-5.70396946734022
570,-6.02512629056774
569,-6.32385223822976
568,-6.51065078935091
567,-6.68275339169559
566,-6.8542117091659
565,-7.02502416603112
564,-7.14024820223076
563,-7.15253750869365
562,-7.16152210902703
561,-7.17001039140166
560,-7.17850157609679
559,-7.23565793598222
558,-7.3265867210979
557,-7.4169508380505
556,-7.50441928522266
555,-7.58895007373228
554,-7.61563186671587
553,-7.62349191985409
552,-7.63084665470719
551,-7.63769430227103
550,-7.64682734544871
549,-7.66741942283442
548,-7.68870835131744
547,-7.70948028525342
546,-7.72973347539544
545,-7.54734673788015
544,-7.0368377713138
543,-6.53987132492282
542,-6.02258248458364
541,-5.50621803050487
540,-5.25049301531365
539,-5.17555318964843
538,-5.10008881185204
537,-5.02409787826233
536,-4.94493904228095
535,-4.76698616868211
534,-4.55932449145696
533,-4.35152845885073
532,-4.14359591610013
531,-4.01199999178393
530,-4.20139194226234
529,-4.42205706036614
528,-4.64969884606769
527,-4.87647642422599
526,-5.0278613060894
525,-5.03110726967831
524,-5.02949125984695
523,-5.02674722027485
522,-5.02344799854767
521,-5.03188314467203
520,-5.05067836251288
519,-5.06859285941148
518,-5.08619397262869
517,-5.09879246590436
516,-5.00031597498811
515,-4.85718276285882
514,-4.71933198998936
513,-4.57554301162196
512,-4.43298226920769
511,-4.30646554919021
510,-4.17675954224809
509,-4.04688413012719
508,-3.91683657644368
507,-3.78246555178414
506,-3.64046944146183
505,-3.49160631233988
504,-3.34236099975941
503,-3.19839436687333
502,-3.10483032025219
501,-3.1028715593121
500,-3.10212686265662
499,-3.10068314987596
498,-3.09890528952211
497,-3.18112886934011
496,-3.33463919876871
495,-3.48699582749768
494,-3.63250970113964
493,-3.77680406287116
492,-3.80906444263095
491,-3.79521562718755
490,-3.78040214360541
489,-3.76497304286171
488,-3.77483178032206
487,-4.00717580833376
486,-4.28508997890483
485,-4.55096724748219
484,-4.82597342432107
483,-4.95691668411418
482,-4.5704677096912
481,-4.12344573047278
480,-3.67606618909079
479,-3.24446544007316
478,-2.90525198226977
477,-2.78037082391113
476,-2.66571517814269
475,-2.55031861966117
474,-2.43025795907919
473,-2.38739416247706
472,-2.42719349057376
471,-2.46838809386766
470,-2.50884642777103
469,-2.54411396925304
468,-2.40643352687037
467,-2.15356373439775
466,-1.90001994064061
465,-1.65449152174065
464,-1.40683231785236
463,-1.25744323332111
462,-1.14465601475105
461,-1.03119848440177
460,-0.913533080018406
459,-0.802540345699797
458,-0.743505212390926
457,-0.692837609672893
456,-0.640453170906878
455,-0.587370601250243
454,-0.548553527173278
453,-0.565391497384538
452,-0.589349822943756
451,-0.612563918752427
450,-0.633120916503124
449,-0.578788999586139
448,-0.322731060555871
447,-0.0563342323283174
446,0.202054452248495
445,0.461156746450925
444,0.649021458801168
443,0.718636197976918
442,0.787148422531762
441,0.855107266595718
440,0.923810040177934
439,0.989771098288115
438,1.05178770517347
437,1.11357737808812
436,1.17609523746499
435,1.24012217962156
434,1.39463490568675
433,1.60476824723225
432,1.8093727307063
431,2.0147621531794
430,2.21869043443358
429,2.37068281485689
428,2.49920380193787
427,2.62520584061981
426,2.75187744616133
425,2.87565327794016
424,2.95949056617358
423,3.03223555754999
422,3.1047422919622
421,3.17800796680526
420,3.25279544024061
419,3.33469002153382
418,3.4183056110313
417,3.50144363100246
416,3.58536764003591
415,3.66856467650347
414,3.74611345018746
413,3.82465332469601
412,3.9039691135865
411,3.98312377077737
410,3.997427118725
409,3.82736447369872
408,3.64698187631395
407,3.46740761243128
406,3.27946488303644
405,3.22799448775143
404,3.44598941574402
403,3.67101982876816
402,3.89688469421559
401,4.12358668385197
400,4.24933633404186
399,4.19993291305591
398,4.14867375745261
397,4.10263968909451
396,4.05749808409988
395,4.081610185441
394,4.18369107214429
393,4.28660758907417
392,4.39036194713806
391,4.49636781382971
390,4.63225982809028
389,4.789090742667
388,4.94667744561967
387,5.1050220891306
386,5.26451775883104
385,5.46692635624631
384,5.69784532912982
383,5.92952187023122
382,6.16195830046269
381,6.3950120390205
380,6.44115641950717
379,6.39751509433759
378,6.35494480516741
377,6.31344744038652
376,6.27927209491113
375,6.38896918539879
374,6.55884564005188
373,6.72951856229011
372,6.90099014305032
371,7.07275749316576
370,7.23554702239735
369,7.39809380544352
368,7.56137106701871
367,7.72266811744145
366,7.89536399961974
365,8.18129132145859
364,8.49816761266065
363,8.81591484860165
362,9.13453579617065
361,9.46380829683987
360,9.88597863054952
359,10.3315405919115
358,10.7778135202406
357,11.2248001132219
356,11.6449457519545
355,11.8295185057309
354,11.9613792637832
353,12.0941525710533
352,12.2278406623348
351,12.3620678248359
350,12.4942574488712
349,12.6267356949337
348,12.7601283289227
347,12.8944375512108
346,13.0030454252082
345,12.9124839400837
344,12.7849768455419
343,12.667077593839
342,12.5500721905544
341,12.4858592202626
340,12.6793320481344
339,12.9086799737197
338,13.1391554139947
337,13.3707620251526
336,13.5929937099805
335,13.7670650857673
334,13.9359536219117
333,14.1058761235095
332,14.2768354094745
331,14.4446836246914
330,14.5949773738544
329,14.7440311783932
328,14.8929981144988
327,15.0429193250306
326,15.2000963163118
325,15.3881200101726
324,15.5816653602345
323,15.7760285581971
322,15.9712119592228
321,16.188235322737
320,16.5208374252881
319,16.8716135688997
318,17.2232545500371
317,17.5757628963974
316,17.9103006696117
315,18.1464049621236
314,18.3689807461405
313,18.5924885985601
312,18.8169308157742
311,19.0343278309001
310,19.2117727980054
309,19.3844458487109
308,19.5581280803407
307,19.7328217980971
306,19.9179309401534
305,20.1475218197768
304,20.3846149311017
303,20.6264407320944
302,20.8692794991675
301,21.1491091726147
300,21.6709554763965
299,22.2383494120394
298,22.8066691624021
297,23.3759178886427
296,23.9538385525143
295,24.5840901962141
294,25.224804818861
293,25.8665760130904
292,26.490489687266
291,27.0843640085048
290,27.4099110934239
289,27.6663494505608
288,27.9238416414627
287,28.1823901913257
286,28.4112715549387
285,28.355143652743
284,28.2302801046601
283,28.1064677200172
282,27.994647362881
281,27.8987695998823
280,28.0019287205703
279,28.1734647499888
278,28.3460670989374
277,28.5197380226602
276,28.6861977633771
275,28.7349017095079
274,28.7520764336964
273,28.7703974403805
272,28.7837026067383
271,28.8048467363155
270,28.9937357541907
269,29.2556799797763
268,29.5186340197693
267,29.7793322709984
266,30.0411958543507
265,30.3158600186979
264,30.5965111385611
263,30.878261026705
262,31.1611122002366
261,31.4457621482543
260,31.7686099871223
259,32.1184569126544
258,32.4759907539556
257,32.8347007183132
256,33.1945156811485
255,33.5220007562571
254,33.8193050123469
253,34.1177889486856
252,34.421703778208
251,34.7268185988863
250,34.9996786516813
249,35.2338236439703
248,35.469114962661
247,35.7070593680769
246,35.9461586536298
245,36.1406214301523
244,36.2632868225913
243,36.3892966154893
242,36.5164319336511
241,36.6415785937337
240,36.787017843772
239,36.97540349076
238,37.167124699852
237,37.3600130303008
236,37.5533457290577
235,37.699501775841
234,37.7021949571019
233,37.7049558737991
232,37.7089590986678
231,37.7056464794783
230,37.7517999895667
229,37.9989097763195
228,38.2694183896804
227,38.5430670208895
226,38.8179606906022
225,39.1011325685829
224,39.4240542828446
223,39.7552739015692
222,40.0918478327138
221,40.429677673677
220,40.7622058111358
219,41.0656548437872
218,41.3646520246098
217,41.6649963089595
216,41.9641736219412
215,42.2622611603681
214,42.4994870145119
213,42.7091553549343
212,42.9212277746437
211,43.1345433086701
210,43.3466995940014
209,43.456090643504
208,43.5088686635596
207,43.5626434100607
206,43.6096137873517
205,43.6653630121972
204,43.865971440039
203,44.2384393117936
202,44.6127497771625
201,44.9838686456648
200,45.3563911362237
199,45.6364827790363
198,45.7410227088587
197,45.8493876510506
196,45.9590338871621
195,46.0638396323424
194,46.1185193877552
193,46.0043373093177
192,45.8661831705388
191,45.7445964075592
190,45.6239379026887
189,45.5575375964382
188,45.8333836565629
187,46.1548579701339
186,46.4776684720608
185,46.803606086736
184,47.1356907902912
183,47.535116297677
182,47.9563535076816
181,48.3733114919517
180,48.7913093526675
179,49.2061533170694
178,49.4239586248185
177,49.5608903643632
176,49.6930111768187
175,49.8325217270341
174,49.9742198765156
173,50.3504444193177
172,50.9033813725785
171,51.4571271491903
170,52.0219350074123
169,52.5772989930596
168,53.2992786520282
167,54.297795861135
166,55.2749229482336
165,56.2544059468218
164,57.2634906741831
163,58.1735082888209
162,58.8860567477431
161,59.6065411311002
160,60.3120474238249
159,61.0185953594322
158,61.6442583915398
157,61.809126407259
156,61.9030896071527
155,62.0066908580516
154,62.1116552953564
153,62.2273279018408
152,62.5305372974351
151,62.8855634922886
150,63.2419701808808
149,63.5997598966678
148,63.9730213088343
147,64.8492340584738
146,66.008132903464
145,67.1678327018069
144,68.3283359901508
143,69.5231736853705
142,70.5198196464067
141,71.3205566463708
140,72.1226241727794
139,72.9260254031412
138,73.7498983725618
137,74.4377463939481
136,74.8296689769413
135,75.2111485324042
134,75.5940652740244
133,75.9804895785242
132,76.2798293087222
131,76.1106830953935
130,75.8809450288338
129,75.652533336087
128,75.402644430383
127,75.2540212519114
126,76.2410257912231
125,77.5730915903226
124,78.907217222288
123,80.2434102168258
122,81.578092034286
121,82.4474118944859
120,82.9666560143448
119,83.4947821877002
118,84.0180460584488
117,84.5433158154884
116,85.0206291437551
115,85.4150403158852
114,85.8100323406018
113,86.2064792914161
112,86.6043836340056
111,86.983634727601
110,87.2868851116979
109,87.5831238706429
108,87.8783873949947
107,88.1780321766979
106,88.5115156522896
105,89.1360652960219
104,89.8374344258768
103,90.5397721343869
102,91.2430805438582
101,91.6169290726468
100,91.9922936840844
