Unnamed: 0,Unnamed: 1
cap abs,
,
,
Raman Shift / cm-1,INT
3200,-97.1032528647912
3199,-96.1370785611303
3198,-97.6661475138066
3197,-68.3639143143355
3196,-20.3573158708191
3195,-44.7749183394993
3194,-80.7402716038969
3193,-78.5406155638535
3192,-91.435845175618
3191,-129.444686125041
3190,-110.82465227683
3189,-68.1625387726908
3188,-57.8648431842136
3187,-41.2322056227703
3186,6.98664609035988
3185,38.4664560812538
3184,52.112463545186
3183,61.1148882633418
3182,80.802773263065
3181,173.722547796765
3180,211.673696202221
3179,93.4072189505465
3178,37.3929962660893
3177,38.080525199505
3176,40.3618262898023
3175,42.645282855982
3174,43.1879971381325
3173,43.4749839418147
3172,43.6286876842967
3171,68.0090740296375
3170,111.028559087504
3169,150.384629083313
3168,183.317433071331
3167,188.386141738608
3166,189.21057197008
3165,190.135171152797
3164,192.171497928671
3163,195.042032833237
3162,198.99405376517
3161,189.789618067328
3160,96.4628587426256
3159,9.67652947619684
3158,-22.6268844852223
3157,-37.1942211990303
3156,-34.0893782840259
3155,-31.8939472778521
3154,-32.7328927207141
3153,-56.3843817544256
3152,-79.0285837039741
3151,-77.4277936308696
3150,-29.9034660301444
3149,93.6178199247559
3148,240.281776948927
3147,398.980628852212
3146,530.049443048403
3145,688.780466761054
3144,1081.98775313145
3143,1278.80552098859
3142,829.158699043623
3141,549.670115453588
3140,574.217658773268
3139,493.11664649815
3138,351.412152221998
3137,249.92226614024
3136,164.295161759779
3135,78.6722109001272
3134,44.641887597783
3133,149.266485466314
3132,180.426172096882
3131,99.4735335867853
3130,51.4903176506153
3129,25.1522644946733
3128,17.6631061075014
3127,17.3458965857933
3126,20.07582388665
3125,23.0565201356479
3124,24.990167252571
3123,45.8348621870839
3122,97.6461801476907
3121,108.146616339323
3120,83.5468152847139
3119,94.3528620881193
3118,118.305765808911
3117,122.684595923053
3116,126.202392841753
3115,149.071120963084
3114,167.196745747915
3113,169.159941302455
3112,178.764373323575
3111,200.093113262723
3110,186.677231045174
3109,147.37274478176
3108,142.571279791899
3107,149.562032437244
3106,137.472950565529
3105,124.358474191398
3104,123.86413894421
3103,118.706289777873
3102,96.8245298154922
3101,91.5829688719089
3100,114.315129921344
3099,137.498172703457
3098,160.707917998009
3097,183.483548126684
3096,203.470245895029
3095,190.878996774849
3094,177.443203490575
3093,229.942780564998
3092,282.621142925942
3091,286.878811637072
3090,267.749643463823
3089,205.035843094009
3088,166.199638857863
3087,165.912226601573
3086,154.726308036464
3085,133.660339622998
3084,125.637707189484
3083,126.456297731365
3082,157.525867261595
3081,191.20219161789
3080,164.253363967826
3079,126.882892103607
3078,105.446968877787
3077,90.4077548892081
3076,87.6494629650533
3075,99.1160234812812
3074,137.752648929753
3073,167.864755280151
3072,186.784816580378
3071,215.746966851282
3070,253.568095861914
3069,279.307583243456
3068,296.825215749845
3067,301.389040665022
3066,299.28894181782
3065,283.771540765977
3064,262.244126992473
3063,227.092213887414
3062,192.867330585046
3061,171.259108105156
3060,155.711027443495
3059,154.487608654659
3058,154.023144380147
3057,152.757468356067
3056,158.517958737023
3055,176.895710981081
3054,194.582843966698
3053,210.966837033088
3052,190.205579515157
3051,137.460084734618
3050,139.134587221087
3049,173.088978415347
3048,183.40044209026
3047,182.935601422023
3046,182.351200244002
3045,182.95994988069
3044,195.324797106163
3043,210.555281552964
3042,226.380074266149
3041,237.268977231029
3040,223.748373278691
3039,207.187204779355
3038,190.722752004968
3037,178.044929350051
3036,176.292687782761
3035,175.322456287589
3034,174.609208189393
3033,173.813419966484
3032,172.827908845052
3031,171.99830315581
3030,171.417992410859
3029,184.050347094309
3028,213.679894332338
3027,257.764154415352
3026,316.056418866209
3025,294.13807861914
3024,205.331484689737
3023,294.619543229423
3022,492.311955406964
3021,505.611788149071
3020,418.069283081407
3019,359.338158645122
3018,320.570008042261
3017,410.582596671138
3016,536.435226556929
3015,462.801593310382
3014,327.32576047005
3013,262.809311261664
3012,219.699226932429
3011,177.042668222088
3010,141.741243649687
3009,156.254787168646
3008,183.181730530966
3007,220.354640262767
3006,254.993112490027
3005,259.566278056214
3004,253.79624588315
3003,217.540203133851
3002,186.217066823799
3001,204.774811928456
3000,223.50095567994
2999,213.202346604576
2998,195.088744907373
2997,158.35289895018
2996,128.513687255545
2995,136.196836003118
2994,145.761359336105
2993,146.055955355601
2992,147.711197954425
2991,158.691891582146
2990,158.900645363208
2989,114.200600665892
2988,74.673686924839
2987,70.6747114904121
2986,76.9791737235571
2985,109.124527192578
2984,129.854964329786
2983,98.5612596431911
2982,69.3287115240008
2981,65.7820533491026
2980,64.7830920614777
2979,64.0990455890644
2978,63.4502445504972
2977,62.8264965219406
2976,66.4676827449868
2975,86.8193611391491
2974,119.364504857331
2973,194.225727553918
2972,246.637374321369
2971,189.382845323395
2970,144.004007385888
2969,198.9399291275
2968,253.793604399214
2967,258.525141174916
2966,251.987411363946
2965,220.817534791591
2964,188.280947033959
2963,164.24672580393
2962,146.105709990957
2961,152.629420175171
2960,161.195739731215
2959,161.517196385923
2958,160.457510289658
2957,159.555921021677
2956,159.606650808081
2955,167.510273727157
2954,177.073592617994
2953,186.33653411714
2952,194.12457465931
2951,187.221293720545
2950,178.481187317812
2949,205.227541825644
2948,241.994216338649
2947,229.741741468284
2946,200.123119317563
2945,211.084171415681
2944,238.475872413146
2943,247.146165454678
2942,245.783101762316
2941,244.423371346083
2940,243.066969522504
2939,241.713891611061
2938,240.364132934221
2937,243.734010431895
2936,251.911904377442
2935,225.488732609064
2934,158.352008402454
2933,126.531423480278
2932,143.545889674909
2931,158.038897311893
2930,166.405197714575
2929,174.54232374048
2928,182.372533357678
2927,192.250456997934
2926,208.747607368822
2925,223.735159639712
2924,231.786209865128
2923,237.862981446173
2922,237.409239230642
2921,237.045989260225
2920,243.043627839024
2919,251.41349197787
2918,272.735778712545
2917,295.771566691467
2916,300.029758084573
2915,297.394256861131
2914,265.934087724063
2913,223.184477210308
2912,206.420205653786
2911,205.188112644289
2910,213.378519596481
2909,228.54417633214
2908,228.348318556427
2907,210.307997523192
2906,199.00249000764
2905,197.653747786154
2904,196.414081170311
2903,195.177571947561
2902,193.944215547354
2901,192.714007402114
2900,193.988516818804
2899,206.937591595395
2898,224.164025774488
2897,258.081542504797
2896,292.533064483965
2895,299.040832411154
2894,297.42586790052
2893,296.035504350853
2892,294.835549501937
2891,302.835962590657
2890,316.811057518663
2889,318.268792212016
2888,308.783828962317
2887,305.486665729801
2886,311.271776650036
2885,307.911461074181
2884,284.731006047077
2883,267.461704415346
2882,271.373418330813
2881,269.999323377198
2880,230.099976065415
2879,189.136432636198
2878,180.562600101049
2877,180.336379196777
2876,199.974053157236
2875,226.424066524393
2874,231.101601930423
2873,222.812207876421
2872,214.549264829197
2871,206.317487953401
2870,203.107016027595
2869,208.62086615889
2868,210.498811660081
2867,202.813215456633
2866,198.118684027655
2865,208.668815292917
2864,219.621400649236
2863,220.457062559255
2862,219.440170281057
2861,222.864360465436
2860,227.796035056919
2859,232.917292309843
2858,238.166522897033
2857,249.551564873533
2856,267.430874875521
2855,280.669353434701
2854,285.974861711376
2853,289.659171843475
2852,288.415113057807
2851,286.038809381866
2850,278.872008692379
2849,270.946013312529
2848,263.153636157373
2847,255.652832864185
2846,259.826985242223
2845,270.648811973973
2844,272.359752896919
2843,264.279885881921
2842,256.409904235938
2841,248.844457764023
2840,241.298497593623
2839,233.861270805309
2838,223.748621519217
2837,195.824853758358
2836,165.325368489018
2835,147.619936003979
2834,134.98095646339
2833,129.004881975733
2832,127.946251162762
2831,122.272099540765
2830,109.601838387632
2829,99.8746790501484
2828,98.4650828511122
2827,98.3216321213365
2826,102.381772826723
2825,106.129351077764
2824,97.5599955318893
2823,85.5576842345425
2822,76.8676409422382
2821,70.3692990848092
2820,64.0623360884875
2819,57.6863372490815
2818,54.3422142909948
2817,58.5075168914239
2816,63.0073858026839
2815,67.6668176939719
2814,71.7604582484919
2813,68.0118070071
2812,61.7726788042295
2811,68.5118476701737
2810,83.4902541963955
2809,85.8581489156594
2808,69.0449748036079
2807,56.128750923465
2806,54.5617340287302
2805,56.0643886066895
2804,73.1267616158513
2803,91.6214476919152
2802,82.3392869653844
2801,60.581250308465
2800,52.3375795546172
2799,56.5480465298943
2798,60.7351348624031
2797,65.0259787197286
2796,70.0816315575652
2795,78.6635243274825
2794,86.9204397015324
2793,84.5465737759105
2792,78.6480728572034
2791,81.5018273462855
2790,90.341171259844
2789,93.9264571698551
2788,88.2727424172466
2787,85.0981462014851
2786,92.7759633259493
2785,101.034758879947
2784,105.794499804073
2783,109.570785029549
2782,110.534214423038
2781,109.582738147524
2780,106.766917035419
2779,101.083797218044
2778,98.0530709635829
2777,105.37277321586
2776,112.57906893449
2775,105.999155620825
2774,95.47830224277
2773,85.2517488291037
2772,75.1166241623871
2771,71.6029655826911
2770,79.5420039185479
2769,89.1073821384901
2768,105.283612992479
2767,121.60845634459
2766,124.814269868778
2765,123.777068754404
2764,122.74804744994
2763,121.726136696471
2762,120.701849027863
2761,119.668298256549
2760,116.458684455846
2759,100.184362401876
2758,82.2071529835411
2757,75.9172419667581
2756,74.9886623780197
2755,68.1725561879083
2754,54.1140606137497
2753,43.5119477252201
2752,42.0891176176981
2751,39.5784047371589
2750,21.4543500338251
2749,-0.113414563288362
2748,-1.48380018940571
2747,10.3912971234831
2746,26.3140599984384
2745,50.1815135990236
2744,70.1715201107335
2743,68.4564594476183
2742,63.5793614608872
2741,61.516649495722
2740,60.6981817934921
2739,79.0875176052064
2738,122.665506751377
2737,155.716901158169
2736,150.037291671277
2735,137.195718005521
2734,75.6171731992074
2733,-0.889139021246237
2732,-23.0578889821213
2731,3.98143694844814
2730,23.7860175359047
2729,24.1286715043694
2728,22.7154529992185
2727,15.5091073519773
2726,7.07742557689793
2725,7.70266016534723
2724,14.5457863544213
2723,19.400030746155
2722,18.9170221313728
2721,19.2410156243171
2720,28.0536341048003
2719,38.5778125613319
2718,42.2131525284615
2717,41.4389837029992
2716,40.6497919058625
2715,39.827652576792
2714,38.1316048626562
2713,31.0772894922682
2712,23.1381469772264
2711,19.5113679885079
2710,18.7659045249775
2709,18.028690705953
2708,17.3056443836503
2707,16.5851349775548
2706,15.8655570933312
2705,15.2673081914551
2704,27.4600832604957
2703,48.2966739343332
2702,65.7951960755525
2701,76.0146340657757
2700,84.8298345394558
2699,85.4429305965044
2698,84.3967646849269
2697,79.353612773261
2696,71.3112385205396
2695,64.3145358044011
2694,59.8243026725773
2693,55.8119958336357
2692,54.3696734171871
2691,53.5749637936478
2690,52.8134691925925
2689,52.0818890589566
2688,48.3636406679701
2687,34.8845424242015
2686,20.9363666443569
2685,14.3442047045861
2684,10.2555141160627
2683,13.7028447408955
2682,26.1131087118025
2681,36.5865562131687
2680,37.0261415416038
2679,36.0888937078002
2678,28.7298859773413
2677,18.0749016212142
2676,12.1082348924132
2675,14.4617966615683
2674,16.6458832139059
2673,16.4463873371497
2672,15.7257063799499
2671,13.1731614027577
2670,9.3054325986678
2669,6.95296677706832
2668,9.11920072599518
2667,11.9932707312576
2666,21.8020679249357
2665,33.9593706833367
2664,37.6072684088316
2663,30.6531536476345
2662,25.8944933042353
2661,32.8487754973576
2660,41.4026479634433
2659,47.2466006005976
2658,51.3751676270337
2657,54.572592121388
2656,54.953166953712
2655,54.0384189791369
2654,39.0889972227257
2653,19.7475278316078
2652,10.4713814063627
2651,12.8032010896577
2650,14.7403674576996
2649,14.3136658323047
2648,13.570292870451
2647,12.8783902634694
2646,12.2230839276877
2645,8.4566915619135
2644,-3.39578904773241
2643,-14.1496901477304
2642,-1.84647911464427
2641,17.7796569280948
2640,25.6896456943688
2639,16.2997196098505
2638,9.32871738083305
2637,17.452048891496
2636,27.9915595010383
2635,33.7930514030663
2634,35.8596350599578
2633,37.3489199686086
2632,36.7377702095086
2631,35.9258179019441
2630,35.1099802172269
2629,34.2946447561518
2628,32.695382654719
2627,29.357613319526
2626,26.1180541516688
2625,24.7971409663614
2624,24.0817273265953
2623,24.5142781953178
2622,26.4826224917003
2621,27.5159959183854
2620,22.6083677854798
2619,16.6094007927194
2618,13.4127922447027
2617,12.6810919629979
2616,13.7654845623291
2615,22.879530143659
2614,32.7833391280939
2613,37.6430103343307
2612,39.5124518097269
2611,41.3948065452923
2610,43.3430398436314
2609,45.3645444197577
2608,49.0340716848365
2607,53.3934714423277
2606,56.9525014844443
2605,58.7976767948626
2604,60.4454498705562
2603,60.2027408832223
2602,59.3884895301771
2601,55.6888304010123
2600,47.4278945626457
2599,39.1463603296447
2598,28.8029107146405
2597,18.0453134524548
2596,13.8190679074764
2595,18.0083518146718
2594,21.0889909628238
2593,16.8070804598102
2592,11.2701798381924
2591,8.03320209932503
2590,7.39655933018329
2589,7.78220665173816
2588,13.7368433013827
2587,20.4053842596653
2586,38.604557962284
2585,67.0099276516069
2584,84.9567376405278
2583,54.4973213289772
2582,18.5878404311098
2581,8.73092839089233
2580,20.0596053527577
2579,29.2285985505855
2578,29.583614930253
2577,28.86212610628
2576,19.7977703039522
2575,4.92863393086265
2574,-4.25822883054692
2573,9.04258490403958
2572,24.6921671390192
2571,33.172010946152
2570,37.189812721561
2569,39.0429973060187
2568,32.3244848917609
2567,24.7048743850335
2566,25.2911079216953
2565,31.2514985618719
2564,35.2958245550264
2563,31.0298760204402
2562,25.9753481594934
2561,24.7415642314394
2560,26.2962646152141
2559,26.3127140688468
2558,19.797601149014
2557,12.4088689778085
2556,11.4332110244577
2555,15.3259489057369
2554,17.960893162745
2553,14.0514832782621
2552,9.34203855990453
2551,6.79814712850251
2550,6.21897408838636
2549,5.62458447378831
2548,4.93947580398762
2547,4.24323383056167
2546,3.55606049664963
2545,2.88729714076613
2544,3.09824970072247
2543,9.65026972434504
2542,17.6567672846993
2541,22.80681420495
2540,24.2120793707503
2539,25.6117418549704
2538,27.194442264951
2537,28.8101169228844
2536,31.0603197821106
2535,34.4257311575261
2534,37.7933289411251
2533,41.3749287372325
2532,44.9899353705984
2531,47.2122934444888
2530,46.634422456883
2529,46.0084899295518
2528,46.7756267772969
2527,48.2314360597501
2526,48.7333352784997
2525,46.3724103288444
2524,43.8043089166147
2523,38.7449598364419
2522,32.1111496452984
2521,26.324524962002
2520,24.9561705365322
2519,24.1789656715357
2518,23.4533982995293
2517,22.775212858636
2516,21.9240580413775
2515,19.7090135957385
2514,17.1594452960775
2513,14.6416521833596
2512,12.2185296020648
2511,9.90021301694802
2510,8.87299415048275
2509,8.25108706042645
2508,8.2071560397375
2507,9.59566228233392
2506,11.0225286100908
2505,11.0955684296581
2504,10.4208553798418
2503,11.2383914372343
2502,17.6351339788353
2501,24.5379980853708
2500,28.4673862693827
2499,29.8133256819417
2498,30.972886022835
2497,30.7413999857969
2496,30.2241938901949
2495,30.376814277389
2494,31.6851861047861
2493,32.9512685524948
2492,32.9798063306166
2491,32.5153435758015
2490,31.207815686988
2489,27.1021473264003
2488,22.7290792010644
2487,21.6340546997346
2486,22.7519822074774
2485,24.1192171343939
2484,26.9266575712495
2483,29.9477608836162
2482,29.9443111406856
2481,25.7888914410719
2480,21.9760349260395
2479,23.2229522004548
2478,26.1260379193339
2477,28.1813849960668
2476,27.8807732581306
2475,27.4038161117393
2474,22.6854732099783
2473,15.2991963781242
2472,8.63575862734044
2471,7.03826045887095
2470,6.53547308896268
2469,7.81868548998353
2468,12.3882731641376
2467,16.8430190688278
2466,16.683340699281
2465,14.4544590291336
2464,12.5610178848515
2463,11.9744793485653
2462,11.524806257298
2461,9.50868833395317
2460,5.88479501738666
2459,2.60632580855248
2458,2.87964689526167
2457,4.08415456573019
2456,4.36150486973563
2455,2.36215778856945
2454,0.233221335803662
2453,0.0443222497651434
2452,1.23765374363618
2451,2.43304455619072
2450,3.6729300618397
2449,4.91863407543918
2448,6.06224411892737
2447,6.99268103307537
2446,7.91483927843474
2445,8.99409379863937
2444,10.1407943574621
2443,11.0388315795065
2442,10.6852170683638
2441,10.1582525878957
2440,8.34944626451175
2439,4.84911056288618
2438,1.43095280781721
2437,0.0477328746809526
2436,-0.410316786323516
2435,0.287631721855617
2434,5.73413842285778
2433,11.5139413042445
2432,9.99561640026906
2431,-1.42306875308612
2430,-12.4248816271655
2429,-15.6228340932468
2428,-15.9439581622742
2427,-13.5371711208175
2426,0.42282458334906
2425,15.6350849551232
2424,23.6973971226372
2423,23.2484210229052
2422,22.7841102829303
2421,22.2976596239741
2420,21.8068154163747
2419,21.6362408211387
2418,22.6450748114471
2417,23.7706046358546
2416,26.1809264602171
2415,30.245722887835
2414,34.5217388138537
2413,47.0132621544656
2412,63.2239333219342
2411,71.7339688100646
2410,47.4439810443179
2409,19.2333319616966
2408,0.225516433089101
2407,-3.30944701032249
2406,-6.47479541643159
2405,-5.82555638722579
2404,-3.28332527026326
2403,-3.12965965572044
2402,-17.1528876567813
2401,-33.8243617742706
2400,-42.9041757685141
2399,-37.7553971261721
2398,-32.2414451898697
2397,-23.0507631551755
2396,-11.9139632926855
2395,-1.80500945774902
2394,-0.197316702148069
2393,-0.652648768857832
2392,-0.738344021405988
2391,0.23891140539256
2390,1.24897400780473
2389,3.74785071388557
2388,7.85202799495547
2387,11.7241062003746
2386,13.5559164703489
2385,14.7160627215578
2384,16.0265126876014
2383,18.1606446250246
2382,20.4358021320257
2381,21.5432129255892
2380,20.9124162597216
2379,20.2164313549135
2378,17.9450244982843
2377,14.8077899180538
2376,11.9177407053022
2375,11.0529202258314
2374,10.6146889033543
2373,10.2273924290601
2372,9.95774881941569
2371,9.69258062067327
2370,9.38484020720037
2369,9.03113521447689
2368,8.68355662774861
2367,8.44141478201556
2366,8.24184211365664
2365,7.67855493215586
2364,4.97422037553187
2363,2.00678674846729
2362,0.7188632244513
2361,3.00769377317352
2360,5.43006910939121
2359,8.48207608390362
2358,12.0754702471114
2357,15.4177732108405
2356,14.0123116143793
2355,11.0434189323002
2354,8.65863257061847
2353,9.11257263227588
2352,9.91656377036575
2351,10.2990829927791
2350,9.84397623689832
2349,9.35589684413562
2348,6.27500080599177
2347,1.02441424304759
2346,-4.03992796287986
2345,-5.68081275300286
2344,-6.11734276675912
2343,-6.90358178871284
2342,-9.50338618444166
2341,-12.3713512047572
2340,-14.4635242790523
2339,-14.7689637254765
2338,-15.0093399098249
2337,-15.2883861604067
2336,-15.6048398624097
2335,-15.5615721840243
2334,-7.80233919276297
2333,3.22740114916321
2332,13.1286175247849
2331,15.4494413643428
2330,16.426620393187
2329,17.3843176814644
2328,18.2909184475229
2327,19.1644654285687
2326,19.0849205004146
2325,17.642395995888
2324,16.1352205317495
2323,11.5738878574738
2322,5.17536210526003
2321,-0.971469594102659
2320,-4.2597909045431
2319,-6.86848356015511
2318,-8.8989279281926
2317,-8.15070342933075
2316,-7.06492177384511
2315,-6.01788077097249
2314,-5.05360822127784
2313,-4.12315211596655
2312,-3.10610021328883
2311,-2.02506757801989
2310,-1.01219783638566
2309,-1.69071214842774
2308,-3.25828876810673
2307,-4.8113121579409
2306,-6.29570722614329
2305,-7.72172634517389
2304,-9.14405924742977
2303,-10.4126136198458
2302,-11.6305766298841
2301,-10.3679319223392
2300,-3.51577003709496
2299,3.36466397185661
2298,7.09517939305632
2297,6.94516317415234
2296,6.8602433959331
2295,11.996895920709
2294,20.1386709328835
2293,27.6126417462198
2292,29.2356493442901
2291,29.0055641585748
2290,27.5856659544667
2289,19.0389162153547
2288,9.40677491025349
2287,2.28930237666472
2286,1.7913565359291
2285,1.72043414066531
2284,0.693106154456185
2283,-1.89810102228068
2282,-4.49637781079569
2281,-6.40761820373472
2280,-7.82985189960995
2279,-9.18710117827467
2278,-8.12494311831193
2277,-6.0215271897364
2276,-4.1431186152701
2275,-4.75121430743891
2274,-6.03330265050738
2273,-8.61210252776101
2272,-18.0070120870244
2271,-28.6250228062241
2270,-34.0155278767398
2269,-24.8294499526073
2268,-14.8458382569442
2267,-8.36460882854529
2266,-8.31735715704605
2265,-8.40038025486351
2264,-9.01141015759471
2263,-10.1703990783625
2262,-11.3116783230536
2261,-11.6923102183715
2260,-11.6865406647863
2259,-11.6942022518928
2258,-11.9514663270455
2257,-12.2936850384432
2256,-12.6142955780702
2255,-12.8523436780176
2254,-13.0729301708673
2253,-13.2707499226516
2252,-13.3575111303485
2251,-13.4293816082631
2250,-14.4649762348001
2249,-18.0375053270568
2248,-21.7202386512508
2247,-24.5510499980145
2246,-25.7826339383651
2245,-26.9474976475712
2244,-29.1615809800622
2243,-32.4576635396611
2242,-35.7420959600415
2241,-37.7616396689395
2240,-38.8776327601682
2239,-39.8963461395746
2238,-39.4329942413195
2237,-38.367526676634
2236,-36.9062828437093
2235,-30.7542110286939
2234,-23.2574360215729
2233,-15.8275733915248
2232,-10.0659508917681
2231,-4.77498348407928
2230,-0.46866607007296
2229,-0.181748042682078
2228,-0.328326927541216
2227,0.583832631997173
2226,4.63368390647617
2225,8.88557403652949
2224,8.48381086121391
2223,-2.26219464475626
2222,-13.3390441944845
2221,-20.4359751776299
2220,-22.7746322531556
2219,-25.0859059289757
2218,-23.940377390438
2217,-19.6319988580849
2216,-15.3269331900261
2215,-11.6890065311791
2214,-8.49565055484709
2213,-5.36263981666031
2212,-4.34129917172109
2211,-4.35742044287349
2210,-4.29227886613813
2209,-2.77940546588193
2208,-0.733033057467502
2207,1.16871313644905
2206,1.47330446657357
2205,1.33563912528244
2204,1.09966446185467
2203,0.109683366253359
2202,-1.03477176421879
2201,-2.16682177359292
2200,-3.24296391810272
2199,-4.3096212845783
2198,-5.18862725045082
2197,-5.29878727258318
2196,-5.32521144682027
2195,-5.37577160492269
2194,-5.50360928024692
2193,-5.63622049782662
2192,-5.17853501051551
2191,-3.27691633722282
2190,-1.31439978218115
2189,-0.0114065393455674
2188,0.0368778684933087
2187,0.0551543030123235
2186,0.424525623125791
2185,1.31638916403225
2184,2.21141413386455
2183,2.15657712921655
2182,1.0042585194047
2181,-0.146178232410724
2180,-2.89123948208185
2179,-7.05031037165109
2178,-11.185159255127
2177,-12.9092940479975
2176,-12.9562799233466
2175,-13.0125609740344
2174,-14.2607968362809
2173,-16.3160652794839
2172,-18.3407583330296
2171,-19.068663374591
2170,-19.0928457502059
2169,-19.1167396851424
2168,-19.1479390899103
2167,-19.1820106184082
2166,-19.0482486107199
2165,-16.1664893724822
2164,-12.2594228982708
2163,-8.49949035768342
2162,-9.00150709870988
2161,-11.0253704003311
2160,-12.5169836114384
2159,-7.54947971837527
2158,-0.70296183044837
2157,5.49992598140612
2156,6.80447160709363
2155,6.81312163314433
2154,6.48101942707908
2153,2.95091976447149
2152,-1.34439237047377
2151,-5.30752474593122
2150,-7.56481739363234
2149,-9.50110552854159
2148,-11.0632228020122
2147,-9.76550919134674
2146,-7.874769561149
2145,-6.22611429209449
2144,-5.95221001424475
2143,-5.9359810711127
2142,-6.18399393420224
2141,-8.1523583127148
2140,-10.353555712207
2139,-12.3114640825032
2138,-12.7553472486664
2137,-12.9033053884787
2136,-12.4170611985546
2135,-8.43985587089027
2134,-3.90423844923883
2133,-0.555275082882317
2132,-5.07268150198499
2131,-10.7412761541788
2130,-15.7641708917771
2129,-16.8203133922663
2128,-17.1353379609271
2127,-17.1893201722284
2126,-15.8522677955195
2125,-14.303578063373
2124,-12.8397155756761
2123,-12.09110792118
2122,-11.4804793852544
2121,-10.8795795917114
2120,-10.3078667478919
2119,-9.76176909097217
2118,-8.82659281244366
2117,-5.07131973582807
2116,-0.785662437638606
2115,3.63161660761322
2114,10.0581399407933
2113,17.0257886960665
2112,23.1103804836014
2111,23.6948339818716
2110,23.1214357809812
2109,22.5594035139718
2108,22.0621473305637
2107,21.5788747609925
2106,21.01263302854
2105,19.8364792354358
2104,18.5148133067191
2103,16.9724500315532
2102,13.5454924264558
2101,9.61907462408813
2100,5.82234000455402
2099,4.58501409709732
2098,4.10351887559511
2097,3.7273519152023
2096,5.03311813204548
2095,6.90191068349218
2094,8.74629606243511
2093,9.49331166215456
2092,9.83087527110694
2091,10.1706001417377
2090,10.4049090778986
2089,10.595393870122
2088,10.7783888199251
2087,10.577475985071
2086,10.1561551132752
2085,9.74074419200615
2084,8.13568790202079
2083,5.79656934798596
2082,3.49375653019964
2081,2.2241290261166
2080,1.8288954117975
2079,1.43747741928789
2078,-0.843356180476716
2077,-4.98088509788475
2076,-9.20151883377816
2075,-10.3413077188786
2074,-7.98290576044143
2073,-5.65081943292801
2072,-2.72948142129353
2071,1.23107351582466
2070,5.06095357417663
2069,8.13021834416031
2068,9.83354522712026
2067,11.4877794061363
2066,12.5187140532582
2065,12.0189455464831
2064,11.4613645304659
2063,10.8871711450736
2062,10.2274959128389
2061,9.5900963589782
2060,8.9462950909987
2059,8.25570252616425
2058,7.56861747557644
2057,6.82219678596734
2056,5.70042391583295
2055,4.53521163178816
2054,3.45211972255962
2053,2.89678547221007
2052,2.45923062961647
2051,2.22491254621565
2050,4.49456422254698
2049,7.45726044778228
2048,10.3004054148817
2047,11.2030196963496
2046,11.3290035514777
2045,11.4463159992398
2044,11.1227014570825
2043,10.5693795519253
2042,10.0323587122799
2041,11.0622458437915
2040,13.2616960292929
2039,15.4486722874363
2038,18.7586881465033
2037,23.2697716176268
2036,27.6232922878955
2035,30.2666887967837
2034,29.84862612019
2033,29.3743028587442
2032,27.3643147236302
2031,21.6373453737694
2030,15.8117836184335
2029,12.5242137662768
2028,17.4396163705788
2027,22.873333994309
2026,26.748098476349
2025,21.7917791325425
2024,15.511147094872
2023,9.3868676677589
2022,4.36761684661411
2021,-0.560254289308896
2020,-5.09794392937139
2019,-3.11938578716492
2018,1.1126417090313
2017,5.1195316512946
2016,4.27009226889816
2015,0.657940755284568
2014,-2.92307007478267
2013,-3.39805707513982
2012,-1.33525037879793
2011,0.778098481268752
2010,2.68036219561036
2009,4.28630249613135
2008,5.8863881356851
2007,6.29874383359906
2006,4.08299811748038
2005,1.7795391829781
2004,0.889502958586921
2003,5.08847711485499
2002,9.72235049882016
2001,13.5951832346078
2000,13.5337075178114
1999,12.7767136218525
1998,12.0742909149037
1997,11.7177290995296
1996,11.471822958168
1995,11.238033791761
1994,11.0450888481863
1993,10.8772487139208
1992,10.7174502817737
1991,11.7030901278226
1990,13.6573411020763
1989,15.5498266875348
1988,17.0538972390724
1987,17.9682736854273
1986,18.8714783032239
1985,19.1987635458671
1984,17.9911960851699
1983,16.7064803261803
1982,15.5540809339235
1981,14.8190114374108
1980,14.1188091734964
1979,13.6277422866153
1978,15.0549818736698
1977,16.9895442464765
1976,18.7908313240382
1975,17.5234912576045
1974,14.9849414462028
1973,12.3774543638348
1972,9.76755756816934
1971,7.23468614355951
1970,4.7102579384801
1969,2.8680383547946
1968,2.22958980589138
1967,1.63272265873895
1966,1.16526234719668
1965,1.08299719230888
1964,1.02349044738985
1963,0.86803836833869
1962,0.182945401762644
1961,-0.578477307984437
1960,-1.29954144165282
1959,-1.27338092005071
1958,-1.01306087508445
1957,-0.75291996821176
1956,-0.423049343503434
1955,-0.0404094745503795
1954,0.341069320332532
1953,3.27622515995678
1952,9.3453641434755
1951,15.4066302471368
1950,19.5080621705759
1949,18.2735078667483
1948,16.7987973278267
1947,15.5885572678625
1946,15.725204744842
1945,16.0529272381454
1944,16.2830961813266
1943,15.2592257114622
1942,13.8881399980375
1941,12.5300801425776
1940,12.0201534726309
1939,12.0488068395086
1938,12.0776164204424
1937,11.8966453756461
1936,11.4143905807307
1935,10.9463149964167
1934,10.5478332697456
1933,10.3496182843448
1932,10.1655968245365
1931,9.98035822202665
1930,9.7772047379005
1929,9.56353012747852
1928,9.46515543455783
1927,11.5753117720486
1926,14.5138357235028
1925,17.4371032911242
1924,18.9850661365075
1923,19.2854202965296
1922,19.5848432149069
1921,20.0277385516776
1920,20.7939576138036
1919,21.569899104647
1918,22.0631484169025
1917,21.1313582591785
1916,20.0406112256065
1915,19.0056963414109
1914,18.6254959481484
1913,18.4477354235407
1912,18.2717279445004
1911,18.1829287689205
1910,18.1583743960417
1909,18.1341085884062
1908,18.0910376476697
1907,18.0120720316013
1906,17.9327994697833
1905,17.5253984867803
1904,15.591311253493
1903,13.4700337033012
1902,11.5737759772594
1901,12.9879986562599
1900,15.5049374635257
1899,18.0130068416597
1898,19.2537763870919
1897,19.4478135294314
1896,19.6411756187236
1895,18.8287251199757
1894,15.8547263664579
1893,12.8216922305463
1892,10.9481947258438
1891,15.332297385769
1890,20.6468539186751
1889,25.7542616772478
1888,26.8799758323512
1887,26.4337582742091
1886,25.9888980417243
1885,24.1443581896596
1884,20.8621651670503
1883,17.5876049393634
1882,15.1515376489022
1881,14.9372432850784
1880,14.8434358062146
1879,14.6705031958212
1878,13.9209188429837
1877,13.0595277003539
1876,12.2226618326054
1875,12.2188316746125
1874,12.6410977106437
1873,13.0626597145668
1872,14.3904004652693
1871,16.997064651743
1870,19.6151157947008
1869,21.6882798162219
1868,21.8226620243532
1867,21.7643334710941
1866,21.7040285472609
1865,21.6068241719577
1864,21.4974460133945
1863,21.3887907723036
1862,21.2646641413205
1861,21.1266266798146
1860,20.9895366006582
1859,20.786451035001
1858,20.4296924413889
1857,20.0657664811079
1856,19.682991822732
1855,19.2440551369105
1854,18.7930143262189
1853,18.3458049052599
1852,18.0788518098695
1851,17.9273924160988
1850,17.7837867815102
1849,17.8015354950852
1848,18.1709039413511
1847,18.5527637744528
1846,18.8005426327352
1845,18.2148884082229
1844,17.4863056343364
1843,16.7905047669871
1842,16.5540665047662
1841,16.5643639973267
1840,16.5747452935353
1839,17.96402354364
1838,21.712435349423
1837,25.3804524387157
1836,28.5558869901712
1835,28.9785902093474
1834,28.9352146241773
1833,28.8435339692668
1832,27.3558569104789
1831,25.1899770767182
1830,22.9598939872525
1829,21.948874049202
1828,22.9900069606723
1827,24.0307364690743
1826,25.2688279786386
1825,27.7215067658678
1824,30.3642121470522
1823,32.8923654581192
1822,31.9907246165652
1821,29.4340417168024
1820,26.804506871689
1819,25.4232342591544
1818,26.1955530635845
1817,27.0060683948469
1816,28.0109672078841
1815,30.1013264014337
1814,32.3133344701874
1813,34.4841505725583
1812,33.8009536061192
1811,31.3015540286353
1810,28.8793009547475
1809,27.3197574712061
1808,27.6898126999692
1807,28.1412844821845
1806,28.5411301922038
1805,28.5959280013911
1804,28.5746002842533
1803,28.5458660311332
1802,27.4693729825667
1801,25.6196607204185
1800,23.7185533969186
1799,22.1596013321312
1798,21.4229703541248
1797,20.7118065053186
1796,20.0461450114147
1795,19.6961624255501
1794,19.4351155689626
1793,19.1741026703292
1792,19.2372462144286
1791,19.6559084167597
1790,20.0844339024242
1789,20.8713390248968
1788,23.3174956551993
1787,26.024479811369
1786,28.6159949924391
1785,29.6946502736844
1784,30.0566304089451
1783,30.4092586733665
1782,30.0648918015993
1781,28.3086635908299
1780,26.5696483281708
1779,25.1978100770142
1778,26.7627127471474
1777,28.9239696918506
1776,31.0786920505176
1775,31.0194559830944
1774,29.0104376495997
1773,26.940099666078
1772,25.3434064817295
1771,25.2440328097549
1770,25.2666606622236
1769,25.3682196131784
1768,27.4100185962184
1767,30.236570828865
1766,33.0598467793028
1765,34.7005666750731
1764,34.0981786990684
1763,33.4520746287268
1762,32.8744614125583
1761,32.8883060197992
1760,33.0317312228172
1759,33.1727132563201
1758,33.2756007470537
1757,33.3440135861277
1756,33.412249445649
1755,33.4649080190312
1754,33.4604488289872
1753,33.4502292853633
1752,33.4458514287847
1751,33.6797376688895
1750,34.029912266089
1749,34.3793404114384
1748,34.7324014366871
1747,35.0953489749374
1746,35.4671048928092
1745,35.8061660058416
1744,35.8568195111312
1743,35.827073656322
1742,35.7973755396971
1741,35.7769149757661
1740,35.7691840813818
1739,35.7614672270843
1738,35.7327952948585
1737,35.5723436584036
1736,35.3879065209783
1735,35.204565496446
1734,35.0770448871204
1733,34.9973907554615
1732,34.9180253085334
1731,34.9042364738905
1730,35.1742501333941
1729,35.473203661092
1728,35.7713582963787
1727,36.0703239196005
1726,36.3694184231149
1725,36.6676851756698
1724,37.0542300766602
1723,37.6887006981234
1722,38.3383541353725
1721,38.9653912804979
1720,39.1027412088477
1719,39.0485328593253
1718,38.99443417077
1717,39.0146883690677
1716,39.1855476800423
1715,39.3593288771488
1714,39.5097154807178
1713,39.3879559625797
1712,39.1828632266212
1711,38.9789809282392
1710,38.5843581349971
1709,37.8833544231479
1708,37.1814675604908
1707,36.4736450108944
1706,35.7039626739017
1705,34.9482875239099
1704,34.170966141116
1703,33.6971667533225
1702,33.6101143917819
1701,33.5241579766418
1700,33.4467888314147
1699,33.3968599917794
1698,33.3531816484928
1697,33.3095577063342
1696,34.0045586683246
1695,35.4222555443253
1694,36.8772879639494
1693,38.266069733546
1692,39.2695569611011
1691,40.2100457412114
1690,41.121872332689
1689,41.1677832196267
1688,40.3502062182757
1687,39.5632058249342
1686,38.9615145813173
1685,39.4959490083607
1684,40.2134168707291
1683,40.9269697937249
1682,41.1997476711674
1681,41.1031519657541
1680,41.0068263391338
1679,41.1071249021491
1678,42.3065573321069
1677,43.6621664871384
1676,44.9725223433634
1675,45.9896117700662
1674,46.7029615974055
1673,47.3926643138743
1672,47.8969505956086
1671,47.3270815707384
1670,46.6128106893381
1669,45.8783431933272
1668,45.7899812020762
1667,46.2824482030054
1666,46.787341061298
1665,47.3181173992334
1664,47.9877641987017
1663,48.698863539193
1662,49.4067609202341
1661,49.6317210589524
1660,49.3889809778328
1659,49.1389061209217
1658,49.0743868689612
1657,50.2548352780581
1656,51.6987280631457
1655,53.1340279961009
1654,53.4693651614289
1653,52.5241092507915
1652,51.5488238069952
1651,50.7845826671096
1650,51.7812383796374
1649,53.1578610931535
1648,54.5683162639809
1647,54.6929827472644
1646,52.8820325703624
1645,51.0635271519033
1644,49.243993260089
1643,47.9862817512103
1642,46.9398573959219
1641,45.899694136765
1640,45.0821798054359
1639,44.7864095383182
1638,44.5202753345239
1637,44.2798528398463
1636,44.6135645313808
1635,45.2045087505863
1634,45.7921490139573
1633,46.0324931467084
1632,45.3406152393448
1631,44.5716544740716
1630,43.8603773276479
1629,45.5845191044511
1628,48.5893240017859
1627,51.5741506312606
1626,54.0411294474973
1625,54.1221641714826
1624,53.9355841433203
1623,53.7496968568815
1622,53.6106667846974
1621,53.5128933529254
1620,53.4114074829559
1619,53.2044294479028
1618,52.3398197977286
1617,51.3647986337353
1616,50.3950523746215
1615,49.7555105870462
1614,49.6151381387119
1613,49.4807229085632
1612,49.3656630998543
1611,49.4308962739273
1610,49.5497230048013
1609,49.6678948605786
1608,49.8748748652602
1607,50.3279753815705
1606,50.7919210143337
1605,51.2350829316063
1604,51.4377468239938
1603,51.5168774999557
1602,51.595452582314
1601,51.8387704945495
1600,52.8340654381284
1599,53.9517825330548
1598,55.0655532497537
1597,56.0170398630636
1596,56.8499859085281
1595,57.6799201052179
1594,58.4061762229542
1593,58.217902028718
1592,57.8141527197339
1591,57.4118409456324
1590,57.4015109534216
1589,58.2542297026556
1588,59.1318988868284
1587,59.9020743266014
1586,58.6970956850795
1585,56.6458742944041
1584,54.6040770141306
1583,53.4017041022372
1582,55.4553580998989
1581,57.8299062462385
1580,60.1950933452177
1579,61.5621103632571
1578,61.9028060632098
1577,62.2421196756364
1576,62.6334922444221
1575,63.6006663179425
1574,64.7231302299066
1573,65.8785427745645
1572,66.7669901096895
1571,67.0839898875375
1570,67.3852775631837
1569,67.6844208687786
1568,67.9110039686692
1567,68.0994158474268
1566,68.287157271173
1565,68.4103802688002
1564,68.2193301275269
1563,67.9867451911141
1562,67.7549335472855
1561,69.2064389660094
1560,72.9230419756228
1559,76.6433528294746
1558,80.2337997579932
1557,81.7586677597146
1556,82.5469410051453
1555,83.3329162170653
1554,83.9329137267491
1553,83.9121285470417
1552,83.8414722273798
1551,83.7707549685147
1550,86.3698408685242
1549,91.3968290262293
1548,96.4040028287325
1547,101.679460552049
1546,109.513892880302
1545,118.064132449467
1544,126.876774196491
1543,133.837499144028
1542,135.19279778241
1541,136.158644253156
1540,137.121209288537
1539,137.49427822189
1538,137.375318206623
1537,137.256127074009
1536,137.129080166394
1535,136.932457167216
1534,136.719363792247
1533,136.50636682307
1532,133.650442900889
1531,124.594962010105
1530,115.590199935829
1529,106.611225873101
1528,99.8110489391877
1527,95.0064439482422
1526,90.2138488358785
1525,85.7465338847694
1524,84.0880168912036
1523,83.0903525649486
1522,82.0953430144639
1521,81.2915171111744
1520,80.9431954493998
1519,80.6139552759301
1518,80.2745210427693
1517,79.4872089582826
1516,78.3312098313119
1515,77.1777720684209
1514,76.0383529729644
1513,75.0092137010208
1512,74.039889266914
1511,73.0734682984555
1510,72.1229175479446
1509,71.3081392679483
1508,70.5053329432069
1507,69.705161365591
1506,69.2898038017786
1505,69.217203533265
1504,69.1443552645681
1503,69.0717037838495
1502,69.0290062638345
1501,68.9960391898297
1500,68.9627313385444
1499,68.9073611704302
1498,68.7663620633058
1497,68.6134795950902
1496,68.4602591012644
1495,68.2874518622545
1494,68.089759101043
1493,67.8976339232904
1492,67.7120498572547
1491,67.7145947376664
1490,67.8075972549067
1489,67.8999258166977
1488,68.2079051072271
1487,69.8139665267016
1486,71.6729429445495
1485,73.5315175978072
1484,74.6681242863826
1483,74.4044341117107
1482,74.0948222074753
1481,73.7915249803929
1480,74.4178667388408
1479,75.656592918472
1478,76.8917640789197
1477,77.9468398890958
1476,76.5681151698979
1475,74.5780415309226
1474,72.5911859904461
1473,71.3020563413324
1472,72.8058306826396
1471,74.5111968314995
1470,76.214402892746
1469,77.2785543176169
1468,77.322048342689
1467,77.3541690415893
1466,77.3864263627051
1465,77.4459668178764
1464,77.51875324573
1463,77.5872312813573
1462,77.993026226671
1461,81.1622854453972
1460,84.9395015500463
1459,88.5969532268336
1458,91.3993150575731
1457,91.7525851455765
1456,91.9245174753903
1455,92.0958889870621
1454,92.2231256742779
1453,92.2840591732786
1452,92.3442164336438
1451,92.4005877218395
1450,92.2420629603502
1449,91.9895214845898
1448,91.7373815265314
1447,91.4801807481067
1446,91.233866014665
1445,90.9883360444891
1444,90.736751543544
1443,90.5372466282091
1442,90.4761517147938
1441,90.4230565712607
1440,90.3692904273774
1439,90.2951178869047
1438,90.1931974928164
1437,90.092024789882
1436,89.9849965732144
1435,89.6190930677908
1434,89.1280137256085
1433,88.637503453326
1432,88.1250677704461
1431,87.3734315707777
1430,86.5404245616087
1429,85.7341882206629
1428,85.0657164532265
1427,84.9194904915822
1426,84.8309425860451
1425,84.742068877631
1424,84.7218376948342
1423,84.8156745164884
1422,84.9108768843598
1421,85.0054276038039
1420,85.0915771767226
1419,85.175576000219
1418,85.2541781595984
1417,85.2935625019116
1416,84.674167359879
1415,83.8043200771161
1414,82.9104039407193
1413,81.9969726346891
1412,80.7826232726309
1411,79.5222345927004
1410,78.2652692722582
1409,77.2867724942399
1408,77.1894621315588
1407,77.1508240566635
1406,77.1109022137608
1405,76.8511266011856
1404,76.2680819386038
1403,75.6813798622684
1402,75.0954796716739
1401,74.6782201159723
1400,74.3792573827725
1399,74.0876348752249
1398,73.8032113933654
1397,73.6295751295989
1396,73.4964174957398
1395,73.3630510070327
1394,73.2737127354759
1393,73.4759572709743
1392,73.7347165982753
1391,73.9925125775632
1390,74.1061442611231
1389,73.7278303236104
1388,73.3038544328354
1387,72.8800358718771
1386,72.791459003598
1385,73.3428834261048
1384,73.9130818421892
1383,74.4831843156801
1382,74.770993655882
1381,74.7687628583642
1380,74.7636305657662
1379,74.7544271926635
1378,74.6780624349432
1377,74.564011533914
1376,74.4496689857901
1375,74.3360626450138
1374,74.2365530254194
1373,74.141022027456
1372,74.0451540436957
1371,73.9058669776905
1370,73.4975285637762
1369,73.0471830628905
1368,72.5971769772642
1367,72.6724558655869
1366,74.4821728983491
1365,76.4091584563141
1364,78.3313645637175
1363,79.8447223155264
1362,80.5766032998475
1361,81.3202770823523
1360,82.0620925681114
1359,81.9966377515408
1358,81.0139326925796
1357,80.0308296235909
1356,79.0598683317913
1355,79.1259348392247
1354,79.8276779873534
1353,80.5017081943612
1352,81.2320186072805
1351,82.5899451698837
1350,84.2030913753498
1349,85.8139117629268
1348,87.4598559250948
1347,90.1541703154195
1346,93.0942683980852
1345,96.0302586343077
1344,98.5261293304647
1343,98.6899784462079
1342,98.5396479131314
1341,98.3903019123274
1340,99.0061842444024
1339,102.082728984781
1338,105.246088000936
1337,108.508718171449
1336,110.692966337295
1335,110.512856597835
1334,110.261067201201
1333,110.013436164693
1332,107.505272271273
1331,101.797118357377
1330,96.2474445854599
1329,90.5287561109473
1328,87.7675463827984
1327,87.700268194595
1326,87.6339950116944
1325,87.5572912126377
1324,86.6904732022909
1323,85.3605163890121
1322,84.0726580822433
1321,82.7882152265959
1320,82.27218302116
1319,82.0731966337365
1318,81.8711121647592
1317,81.7022829203356
1316,81.9060232254791
1315,82.2239934266665
1314,82.5405829002353
1313,83.0326412386744
1312,84.9508040849306
1311,87.2337020775532
1310,89.511964913437
1309,91.3901579610648
1308,91.5545971184909
1307,91.463850843534
1306,91.3717375369854
1305,93.0802801782162
1304,101.103644968959
1303,109.422447669754
1302,117.70700103923
1301,124.715224106069
1300,127.546135192535
1299,130.017233570826
1298,132.571764743076
1297,134.33279434393
1296,134.5153473016
1295,134.662729722816
1294,134.819014566036
1293,134.6493852848
1292,133.996906036914
1291,133.341555796652
1290,132.670419193517
1289,132.115685753199
1288,131.706199445345
1287,131.296615807563
1286,130.877571518317
1285,129.575669668022
1284,127.542780402674
1283,125.513782288499
1282,123.398864407065
1281,118.443868938326
1280,111.703621908023
1279,104.971747799127
1278,98.0661033825588
1277,92.760454916017
1276,88.4952667948521
1275,84.2326164209926
1274,80.0312974392291
1273,78.1951249731098
1272,77.5931307253483
1271,77.0080570127601
1270,76.4031901903729
1269,75.3065963416977
1268,73.966860794248
1267,72.6285397869905
1266,71.3942663524546
1265,71.1294625051943
1264,71.189803185036
1263,71.2557605430261
1262,71.2186361193497
1261,70.0556854954811
1260,68.5905926032247
1259,67.1276585704544
1258,65.7445272436961
1257,65.2367055272867
1256,64.9739863347799
1255,64.7156521977578
1254,64.3109600648993
1253,62.660275942886
1252,60.72603704961
1251,58.7310631079205
1250,56.9488515137685
1249,56.6477031489761
1248,56.6082681615945
1247,56.568488340669
1246,56.4717715599894
1245,55.9778532721258
1244,55.3926204057112
1243,54.8079270695168
1242,54.2870688928472
1241,54.040442183723
1240,53.8365210768952
1239,53.632315416111
1238,53.4806366308472
1237,53.6484303049743
1236,53.8802982300869
1235,54.1116081964947
1234,54.3467217694516
1233,54.659566344067
1232,54.9821339756583
1231,55.3037380420854
1230,55.5798142413133
1229,55.6170783124546
1228,55.6186233170467
1227,55.6195983952338
1226,55.7839555050355
1225,56.7363002744521
1224,57.7669207296997
1223,58.7984280533575
1222,60.052775579335
1221,62.3894797357168
1220,64.8663883035728
1219,67.3394211253673
1218,69.4444426654709
1217,69.6048189865738
1216,69.4784028902485
1215,69.3516517354977
1214,69.2206266344919
1213,69.0659815488248
1212,68.9072562363411
1211,68.7482485926314
1210,68.4643828761521
1209,67.4947876004558
1208,66.4409720393851
1207,65.3870266244157
1206,64.3220971672617
1205,63.1952167938874
1204,62.057636991239
1203,60.9189339246488
1202,59.6428445415777
1201,57.4987580515126
1200,55.2052899671346
1199,52.915680570026
1198,50.8505761603197
1197,50.3939759883154
1196,50.2576835860279
1195,50.1210905418918
1194,49.9874958923666
1193,49.8814747600493
1192,49.7814163415876
1191,49.6810219958523
1190,49.6118511974223
1189,49.8567630749703
1188,50.1816628677211
1187,50.5058243279056
1186,50.7852115400149
1185,50.5347526130845
1184,50.130340912757
1183,49.7266915405164
1182,49.3817673387082
1181,49.9046247043015
1180,50.7143913495507
1179,51.5217807609089
1178,52.2750880257889
1177,52.0362406948858
1176,51.4349240485615
1175,50.8345468929225
1174,50.2302246833603
1173,50.168314913307
1172,50.4045261836745
1171,50.6395623956477
1170,50.8702331343661
1169,50.8192600320048
1168,50.5877077810914
1167,50.3561478868593
1166,50.1259819432575
1165,50.1937426935291
1164,50.4860583473726
1163,50.7775884918024
1162,51.068333638795
1161,50.6518652897708
1160,49.6328840941218
1159,48.6164034570816
1158,47.5726451719308
1157,46.2209757216686
1156,44.4386405330584
1155,42.6566062261113
1154,40.8775845700567
1153,39.7824300006192
1152,39.8203306718099
1151,39.8751676835051
1150,39.9229788265837
1149,40.3582485226225
1148,41.7639638091816
1147,43.2116810428896
1146,44.6558418305281
1145,46.0851947778762
1144,47.4766041573976
1143,48.8609735240102
1142,50.1893616954727
1141,51.5898173933608
1140,53.3896077025212
1139,55.2292517661869
1138,57.0653903586246
1137,58.6301366502759
1136,58.671936082085
1135,58.475798707111
1134,58.2794694634885
1133,58.0887098166563
1132,57.9630204053837
1131,57.8534942097052
1130,57.7436716096467
1129,57.6316616510216
1128,57.4935706713965
1127,57.3474478253033
1126,57.2018742049747
1125,57.029909233022
1124,56.020014021207
1123,54.6499697948037
1122,53.2803796508338
1121,51.8685523676157
1120,50.1894274765807
1119,48.3109141747498
1118,46.4355142577582
1117,44.6201537203513
1116,43.1859121241942
1115,42.168224654177
1114,41.1543547185507
1113,40.1429637060875
1112,39.2732043868397
1111,38.5949503762884
1110,37.9009297594506
1109,37.2063961221179
1108,36.7017763294603
1107,36.6795914005283
1106,36.6877945404651
1105,36.6960401430209
1104,36.613088201695
1103,36.1765588505075
1102,35.702812595648
1101,35.2190393462449
1100,34.6948417296429
1099,33.9163269563709
1098,33.0873384192435
1097,32.2369681348716
1096,31.4256059633076
1095,31.1041967130819
1094,30.9336681482548
1093,30.7625503826884
1092,30.5940582006895
1091,30.5215496296534
1090,30.499004314283
1089,30.4807759493166
1088,30.461985710712
1087,30.377228015898
1086,30.2387985406877
1085,30.1009184634158
1084,29.9619938167799
1083,29.8365089623681
1082,29.7362877230123
1081,29.6363104095415
1080,29.5339952149764
1079,29.3377215189663
1078,28.8657997834663
1077,28.386732230834
1076,27.9076776763853
1075,27.7051370599222
1074,28.9367906496135
1073,30.3108160866173
1072,31.6841911338626
1071,33.3469599925565
1070,37.0523799428525
1069,41.2867652939659
1068,45.666062508829
1067,49.7891743432211
1066,50.363915079713
1065,49.2567316455071
1064,48.1803384353012
1063,47.1040736486411
1062,47.0051819160949
1061,47.7610498542544
1060,48.5144916027675
1059,49.2978793458291
1058,48.4449450040778
1057,44.8473353159887
1056,41.1056118252514
1055,37.492634328286
1054,34.4721296362438
1053,33.2964427852071
1052,32.3083258103048
1051,31.321065021355
1050,30.3410237122195
1049,29.407808774049
1048,28.4569273550326
1047,27.5317667607801
1046,26.6395933378074
1045,26.3299805679575
1044,26.2448068764811
1043,26.1594610031299
1042,26.074002697709
1041,26.0147783995099
1040,25.9799698359232
1039,25.9401520928643
1038,25.8999565747383
1037,25.7838659426344
1036,25.5430491969691
1035,25.2986659189444
1034,25.0566637802821
1033,24.8242638275586
1032,24.6220465097761
1031,24.4221905365476
1030,24.221319876533
1029,24.0758704540293
1028,24.3378853383799
1027,24.674655965968
1026,25.0107498804425
1025,25.3476326116967
1024,25.3580653961512
1023,25.241924676483
1022,25.1255985532995
1021,25.0090881379377
1020,24.9121625264215
1019,24.8336190114969
1018,24.7547014838906
1017,24.6754113021133
1016,24.7865707084863
1015,25.2669162083827
1014,25.757943616651
1013,26.2471305062047
1012,26.6153847433794
1011,26.4345824640436
1010,26.1789308456114
1009,25.9233890458897
1008,25.6190243303928
1007,24.6556270467028
1006,23.4696475546417
1005,22.2846272813845
1004,21.0998088102661
1003,19.7809171019905
1002,18.3572159834056
1001,16.8921735525808
1000,15.4715868699608
999,14.8744445639039
998,15.6950949328882
997,16.543637508047
996,17.3899129786973
995,17.9096681266958
994,17.1272439903099
993,16.1955215581259
992,15.2662684288701
991,14.4045114174142
990,14.1612363030531
989,14.1273764451174
988,14.0936153100121
987,14.0601634855605
986,14.6481053237333
985,15.734471837413
984,16.8186991299357
983,17.9007890076098
982,18.5601630553447
981,18.3595763407285
980,18.1286397775583
979,17.8977387851552
978,17.6430311579342
977,17.2707805906549
976,16.8812052163182
975,16.4918360509498
974,16.1284299094061
973,16.2417917448323
972,16.5512831277496
971,16.8602277206416
970,17.1686267233305
969,17.2365262607028
968,17.0485576486656
967,16.86053962729
966,16.6724057048144
965,16.7078200593084
964,17.4386976311183
963,18.2103052167569
962,18.9790914318156
961,19.6651177732795
960,19.6404510429286
959,19.4629372809844
958,19.2853282828082
957,19.107763846074
956,18.9390711830616
955,18.7750397743897
954,18.611904008145
953,18.4486642439632
952,17.8734746899881
951,16.5164747504851
950,15.1791165745267
949,13.8024853052925
948,12.5852142524988
947,12.3000229316403
946,12.1534044228552
945,12.005267043429
944,11.857102039683
943,11.6728645221233
942,11.4719079148459
941,11.2704707435612
940,11.0690134789616
939,11.0676505401216
938,11.3520775367352
937,11.6225047379897
936,11.9088087059517
935,12.2246548635525
934,12.6473898009396
933,13.1032360771452
932,13.5561788294324
931,13.9719917724353
930,14.103858750913
929,14.1134551638288
928,14.1155721143712
927,14.1242086040771
926,14.0473480194119
925,13.861349287041
924,13.6754771504544
923,13.4895853327135
922,13.2201572282259
921,12.5828149009181
920,11.9067457552397
919,11.247693437091
918,10.6358972556375
917,11.0940470296874
916,11.9269224032552
915,12.7599887425978
914,13.6300293836655
913,14.17588382646
912,14.2741247871575
911,14.380835550728
910,14.4868338341144
909,14.2909586146016
908,12.7289290251249
907,11.0106722583603
906,9.34908755756285
905,7.73619410658054
904,7.53417619385305
903,7.98784303107784
902,8.41815644894748
901,8.84741357414873
900,9.20672073992177
899,9.41508701571695
898,9.60674723223056
897,9.79835419562442
896,9.95698757104679
895,9.84979815003684
894,9.69557888193713
893,9.54283811918055
892,9.39006629345982
891,9.23546693305682
890,9.08068387402303
889,8.92588092115358
888,8.77254672797599
887,8.89352756170984
886,9.58938185274207
885,10.3019301373693
884,11.0452344619758
883,11.7464388217697
882,12.0717658552882
881,12.3181334324876
880,12.5790555592112
879,12.8383644554375
878,12.873434969191
877,12.7328774512673
876,12.5921946232547
875,12.4535824919136
874,12.3542649383398
873,12.3821811637223
872,12.4199632784058
871,12.4575271627044
870,12.510323556992
869,12.6922483056171
868,12.9114121096311
867,13.1300249777485
866,13.3480886585943
865,13.4058728909359
864,13.1672632661551
863,12.9241997038477
862,12.6813176061763
861,12.4362238526989
860,12.1734410391648
859,11.9050728483922
858,11.6370002777932
857,11.3742721904557
856,11.9429046061845
855,13.1647471376349
854,14.385787878571
853,15.6570454354708
852,16.6116507573012
851,16.5165855924287
850,16.3495183082306
849,16.1824957124527
848,16.0009227632102
847,15.4019737635449
846,14.5919538302777
845,13.7833016418565
844,12.9966964549911
843,12.2241777182172
842,11.4774700757236
841,10.7331974484871
840,9.99081160968269
839,9.29019133440842
838,9.03430407456422
837,8.90063517538565
836,8.76463127815154
835,8.62869949738302
834,8.45108060451012
833,8.22659493097149
832,8.00224211979011
831,7.77802381353632
830,7.60053812837819
829,7.71003466417783
828,7.86434298064993
827,8.00618012797101
826,8.14472789944674
825,7.92577352612731
824,7.46977398893662
823,7.01427193782357
822,6.55926892543436
821,6.46079773289025
820,7.63563030916113
819,8.92069671458162
818,10.2022250764294
817,11.4620681434181
816,11.8821006202565
815,11.8465446296111
814,11.8050859830364
813,11.763678282816
812,11.654064075972
811,11.3868019380417
810,11.1135239027962
809,10.8405115792229
808,10.5737316189185
807,10.405767316405
806,10.272828486941
805,10.1400161551127
804,10.0073321018951
803,9.87610858351383
802,9.74761870194733
801,9.61933142653164
800,9.49118338711489
799,9.35575973313029
798,9.12692910994311
797,8.87025943296353
796,8.61393587469214
795,8.35795985238377
794,8.12889413487491
793,7.9445661902912
792,7.7610980485854
791,7.57779100505612
790,7.43819280662359
789,7.74446723827539
788,8.1659528217793
787,8.58611451777219
786,9.00495615756132
785,10.539799952315
784,13.7136357929512
783,16.8889650276573
782,20.0525503399145
781,22.9488007499194
780,23.6154587388266
779,23.7672213187167
778,23.9184974245133
777,24.0692894529903
776,23.9884520470719
775,23.6036801078443
774,23.2180643119696
773,22.8329942909165
772,22.3816028986131
771,21.4173423537969
770,20.3469921074849
769,19.2780092468347
768,18.2103951591384
767,17.4516882497279
766,17.0642577996013
765,16.6780047531316
764,16.2923523674216
763,15.9326621388569
762,15.7523825435562
761,15.6067158677925
760,15.4612513159604
759,15.3135849660298
758,15.4284753484168
757,15.9298544852959
756,16.4330962891824
755,16.9351627295193
754,17.4027087553505
753,17.5675175957162
752,17.6602717615635
751,17.7528804168629
750,17.8453456512544
749,20.066595400739
748,25.2822909425406
747,30.3260586618556
746,35.3727617126116
745,40.301980238568
744,41.3053424567769
743,41.1378930484663
742,40.9706837922497
741,40.8037166532858
740,40.6241067806133
739,40.4218843969604
738,40.2194932931473
737,40.016095474794
736,39.5812416691777
735,34.7856028460067
734,28.3423561800595
733,21.9036631048874
732,15.4695207155791
731,10.7950973399838
730,10.1292774567351
729,9.61814340523413
728,9.09647668447175
727,8.58344263063914
726,8.33862838588377
725,8.22515738552818
724,8.11197556874917
723,7.99590357850571
722,7.94715805050753
721,8.15782789364817
720,8.3928850422166
719,8.62735896874757
718,8.8610130693761
717,9.07058816836921
716,9.25001734491554
715,9.42872213215424
714,9.62078220541048
713,9.7633574259476
712,9.64959903288874
711,9.49947331102172
710,9.34779389695006
709,9.19641704780492
708,9.54773793670206
707,10.4964807966864
706,11.4446563380744
705,12.350416381743
704,13.2503980582
703,14.1427719923141
702,15.0215475529742
701,15.899500707806
700,16.7378906011562
699,17.2588837511476
698,17.1385815219434
697,16.9956438682216
696,16.8529417303821
695,16.7461215299885
694,17.7731623553739
693,19.3498056311108
692,20.9232709804035
691,22.4299390375498
690,23.6053580031171
689,23.5628563520645
688,23.3929876809749
687,23.2234790301276
686,23.0527792693782
685,22.8305597035052
684,22.5637676181319
683,22.2975039739782
682,22.0337328389001
681,21.5889626867169
680,19.7219411391587
679,17.5556573718511
678,15.4626984047724
677,13.3730495598128
676,11.6133899174976
675,10.5578371298624
674,9.54707177913469
673,8.53757436125035
672,7.51313329609795
671,6.81538149579431
670,6.24516536339243
669,5.66206145849407
668,5.08012500818319
667,4.59162982270548
666,4.40865674998388
665,4.2543465439926
664,4.10049570045913
663,3.94592716685247
662,3.54155871138398
661,2.87658423151029
660,2.22941531371371
659,1.58291617981216
658,0.966747991569537
657,0.80454380572264
656,0.757914512631118
655,0.716799054380211
654,0.676229959182889
653,0.397522068308858
652,-0.436334448347534
651,-1.313588626224
650,-2.16440248301627
649,-3.00924112090634
648,-3.46349645138013
647,-3.65006163333508
646,-3.83609911789523
645,-4.02208844838504
644,-4.17338044661038
643,-4.09113753338498
642,-3.95744843684078
641,-3.83446366777357
640,-3.7112830500423
639,-3.66667862903601
638,-3.78550896047537
637,-3.90714928766544
636,-4.02654002032191
635,-4.14716279726102
634,-4.2626845461034
633,-4.37337210913958
632,-4.48564849768599
631,-4.5974577770398
630,-4.70024661764132
629,-4.75262397260885
628,-4.79283810314381
627,-4.83717121451892
626,-4.88112960277412
625,-4.95856179690499
624,-5.09783134719182
623,-5.23738678966278
622,-5.37554038634189
621,-5.51317659348228
620,-5.62003011622491
619,-5.71282112981818
618,-5.80511213942254
617,-5.89434774225021
616,-5.88782493426304
615,-5.36720553384965
614,-4.78088789712242
613,-4.19603921718605
612,-3.58510805640819
611,-3.25109643537215
610,-3.32293340271052
609,-3.39805119450929
608,-3.47276115095614
607,-3.54383118945834
606,-3.61525722389127
605,-3.68496803214159
604,-3.75413010442173
603,-3.82274104408137
602,-3.85296088700327
601,-3.62547402445862
600,-3.33838014665651
599,-3.06709732701389
598,-2.79577915988838
597,-2.74485049773018
596,-3.15051785259814
595,-3.56612389565998
594,-3.98073611403106
593,-4.39927760014929
592,-4.51531767597826
591,-4.44471460076043
590,-4.37367815482514
589,-4.30220581179582
588,-4.24691456761991
587,-4.35164711987631
586,-4.4925586854754
585,-4.63283529511869
584,-4.77247462034119
583,-4.83848791518581
582,-4.6867965655377
581,-4.51843393885602
580,-4.33791179367812
579,-4.16856797383453
578,-4.17353228139867
577,-4.35224314947435
576,-4.5302917758844
575,-4.70767591788207
574,-4.87976799108261
573,-4.9751921728474
572,-5.04093279182055
571,-5.10605895951804
570,-5.17056823822424
569,-5.23700209508172
568,-5.31584632064828
567,-5.39571843679916
566,-5.47497026504978
565,-5.55359938474092
564,-5.76601465822016
563,-6.22825201736267
562,-6.69667144939888
561,-7.16439658269128
560,-7.62904310819442
559,-7.85907810064499
558,-7.92516239511509
557,-7.99060384554069
556,-8.05779889266234
555,-8.18124722949276
554,-9.02713611300666
553,-10.1031624237335
552,-11.1781387582323
551,-12.2520645383432
550,-12.9744824244625
549,-12.1958171027487
548,-11.2666354396048
547,-10.3389544914341
546,-9.41276931174343
545,-8.59301297531706
544,-7.94348644142041
543,-7.32503546992873
542,-6.67754646045167
541,-6.03125401996958
540,-5.7303892251898
539,-5.66910730958387
538,-5.60709554244844
537,-5.54435103035869
536,-5.58676334312406
535,-7.13400884417605
534,-9.1490071146549
533,-11.159774644766
532,-13.1663121847114
531,-14.4964330263035
530,-12.9997116856327
529,-11.2260860164049
528,-9.38210296620249
527,-7.54015871484675
526,-6.31638368731946
525,-6.31208693540944
524,-6.35028223062616
523,-6.38490936204805
522,-6.41880010355937
521,-6.58998708304408
520,-6.88288485322629
519,-7.1676139943585
518,-7.45778799281203
517,-7.73666879002037
516,-7.76527459307587
515,-7.69344484648132
514,-7.62761006555673
513,-7.55473754344126
512,-7.48875424046537
511,-7.47969054741411
510,-7.4758942713596
509,-7.47159364653266
508,-7.46678546346822
507,-7.30950614662471
506,-6.70433324890434
505,-6.04124324379174
504,-5.37840236027225
503,-4.7439990728577
502,-4.44353780115525
501,-4.73295139948339
500,-5.02464926470428
499,-5.32256884169426
498,-5.61895338198158
497,-5.82920522120338
496,-5.97953984964948
495,-6.12880610782869
494,-6.27487143368152
493,-6.43336787670987
492,-6.80964890827443
491,-7.26090003983858
490,-7.72473002751258
489,-8.18713763953073
488,-8.59184181394177
487,-8.63902623063368
486,-8.60780499092002
485,-8.58018357019
484,-8.54782028890469
483,-8.53467309423501
482,-8.59514383149089
481,-8.66038745312802
480,-8.72473440847219
479,-8.78863721098169
478,-8.82540357638807
477,-8.8103101454881
476,-8.79591275072606
475,-8.7805244291734
474,-8.7607556476023
473,-8.79088892660459
472,-8.87535599950425
471,-8.95943959161344
470,-9.04257350533483
469,-9.11761861515745
468,-8.7044885554303
467,-7.96099693453811
466,-7.21656192888259
465,-6.50125113704952
464,-5.78388905782814
463,-5.46162715753558
462,-5.28289962062042
461,-5.10325037632417
460,-4.91326846694746
459,-4.80423605353345
458,-5.25045058672113
457,-5.79655936332429
456,-6.36039152933763
455,-6.92328467187151
454,-7.2905609475705
453,-6.94557663298906
452,-6.5065761756503
451,-6.06697757294445
450,-5.64507837410423
449,-5.30118559488462
448,-5.15324215827777
447,-5.0144750531435
446,-4.88176995755286
445,-4.74806439695522
444,-4.65326560921002
443,-4.6211900477463
442,-4.58907822825704
441,-4.55886939048484
440,-4.52760415031934
439,-4.65298142685857
438,-4.93412060732642
437,-5.20538845033575
436,-5.47557281330872
435,-5.74005503411935
434,-5.48603317408625
433,-4.90582485207201
432,-4.34732677515862
431,-3.78764170441381
430,-3.24859884002574
429,-3.25845829084449
428,-3.50143379617271
427,-3.7354649127236
426,-3.9682340527857
425,-4.13076642508625
424,-3.45236250077985
423,-2.54396598241259
422,-1.66949924688
421,-0.794187728893655
420,-0.0866436951801987
419,-0.525783577429427
418,-1.17141056950254
417,-1.79329076287534
416,-2.41427521183677
415,-2.77288617337659
414,-2.02141208858907
413,-1.1106077271359
412,-0.198993320788741
411,0.678811007596153
410,1.12855632435793
409,0.369473924419708
408,-0.461149195410905
407,-1.29060988778955
406,-2.15023475050799
405,-2.17393328280865
404,-0.568527626837654
403,1.07648506251937
402,2.72294363824331
401,4.37085740562326
400,5.39080440667874
399,5.34873285568857
398,5.29088933517134
397,5.23585069877399
396,5.18198848871578
395,5.2192767959995
394,5.35927349835983
393,5.50049156378626
392,5.64293451168955
391,5.79216742559206
390,5.90144434428841
389,5.97566663341032
388,6.05098787395584
387,6.12741092904662
386,6.20725072438104
385,6.53744187578173
384,7.03269179473936
383,7.52885382738956
382,8.02593158170817
381,8.55312536471664
380,9.39344820889739
379,10.355612248966
378,11.3172979499171
377,12.2785095227469
376,13.213258131989
375,13.5535621661679
374,13.6479259596763
373,13.7434388261258
372,13.8401036748475
371,13.937916477167
370,14.0367120492787
369,14.1399613531421
368,14.2442627706814
367,14.3461744106322
366,14.4746827227108
365,14.8736390906863
364,15.345864265573
363,15.8193098204078
362,16.2939799286419
361,16.7012067641289
360,16.4627804911563
359,16.0664832464515
358,15.6716726773902
357,15.2783509057945
356,14.9347346296368
355,15.0060867202374
354,15.1725454721087
353,15.3402960521755
352,15.509341792326
351,15.678108904025
350,15.8358396034265
349,15.9922345739677
348,16.1498990195446
347,16.3088360993819
346,16.450695756076
345,16.459861010283
344,16.4442467014893
343,16.4319774170805
342,16.421009181396
341,16.4624007772063
340,16.7578536459503
339,17.0892704075384
338,17.4224696642053
337,17.7574580004094
336,18.3228413156827
335,19.9622599935216
334,21.7409285062582
333,23.5237105789049
332,25.3106314662891
331,26.5794748647583
330,25.5176706079951
329,24.1819325346901
328,22.9013812001822
327,21.6227321393915
326,20.5454176921924
325,20.9104056950697
324,21.5019263932098
323,22.0935821197338
322,22.6853772102271
321,23.2016059702771
320,23.3053117033546
319,23.3480513585031
318,23.3921890467294
317,23.437727629415
316,23.4923642179896
315,23.5889562154311
314,23.6928269453009
313,23.7980747424081
312,23.9047025531877
311,24.0282838734232
310,24.2330985677787
309,24.4506005782122
308,24.6695203342524
307,24.8898611968925
306,25.1975018411397
305,25.9100983632137
304,26.6833858541964
303,27.4855380236388
302,28.2890580982067
301,29.0493997743237
300,29.5126037607554
299,29.9219089648776
298,30.3325816271402
297,30.744625401411
296,31.1670752290043
295,31.6508530744294
294,32.1470813422563
293,32.6447838520063
292,33.1284460158362
291,33.5719332972929
290,33.6460693574005
289,33.6276673674206
288,33.6107509674114
287,33.5953227555776
286,33.5818189811293
285,33.5738410631932
284,33.5683331744563
283,33.5643129825984
282,33.5661610967146
281,33.6722804835289
280,35.2186045963101
279,37.227973600617
278,39.2349136560328
277,41.2394310181866
276,43.1506799270819
275,43.7573296753022
274,43.9369729429018
273,44.1181252163073
272,44.3035162025061
271,44.4926088540727
270,44.7374299591096
269,45.0070912212166
268,45.2781391364888
267,45.5447707960728
266,45.8134253552771
265,46.1246550761601
264,46.4577660611696
263,46.7924118117607
262,47.1285958115334
261,47.4646708178102
260,47.6971619967798
259,47.8698413698296
258,48.0457261165126
257,48.223206263791
256,48.4025356315864
255,48.6968444997383
254,49.0751061421813
253,49.4550595019285
252,49.8462907630798
251,50.2392552001203
250,50.7389600703317
249,51.3424461847338
248,51.9475117617679
247,52.5725197030024
246,53.1991614303879
245,53.8650890632715
244,54.5928347675416
243,55.3009984366535
242,56.011062295633
241,56.7453849605286
240,57.3612597559227
239,57.7164041029633
238,58.0568451936607
237,58.3990066971019
236,58.750250362127
235,59.0470253373185
234,59.1772720774247
233,59.2996129705017
232,59.4236306187557
231,59.5476232054615
230,59.628496626404
229,59.5351043055593
228,59.4225757385395
227,59.300001615896
226,59.1788303680996
225,59.1267587726493
224,59.4770409977746
223,59.8970770189342
222,60.3283726249807
221,60.7614700053274
220,61.1811018335738
219,61.5308466201294
218,61.868658511415
217,62.2084683194506
216,62.5445663263114
215,62.8711045241124
214,62.8979852090341
213,62.7898715878167
212,62.695365687785
211,62.6026728375745
210,62.5081358745894
209,63.1036623979666
208,64.1028640342328
207,65.1048162646254
206,66.141394642648
205,67.1489637827915
204,67.6665520028623
203,67.6068641492508
202,67.5471096336391
201,67.4993340867459
200,67.4529935155442
199,67.5054084893901
198,67.7533923576687
197,68.0059222811976
196,68.2602261343983
195,68.5174269697043
194,68.9864787798281
193,70.0816382909165
192,71.2493191015995
191,72.3836306306636
190,73.5205542523435
189,74.5888091919479
188,75.1284169972586
187,75.5893681762293
186,76.0523561514669
185,76.5264457346787
184,77.0216212933824
183,77.8000210169855
182,78.6690121659721
181,79.5145243568952
180,80.3606589931649
179,81.2110575420848
178,81.6243782485231
177,81.8631239122993
176,82.1033087072219
175,82.345743851261
174,82.5905423219888
173,82.9747826662746
172,83.4587475558147
171,83.9441152878315
170,84.4399192714018
169,84.9280959260996
168,85.0617351632627
167,84.637855211986
166,84.2347929222001
165,83.8326036638566
164,83.404186725512
163,83.3103830016903
162,84.0396077214577
161,84.8275273936046
160,85.5974492170995
159,86.3688771299463
158,87.0484961407333
157,87.2035982902515
156,87.279549807804
155,87.3655655164753
154,87.4534821754824
153,87.6324734241095
152,88.8018756077075
151,90.2511041988679
150,91.7021393044609
149,93.154986171374
148,94.6328507024913
147,95.1412694334097
146,95.133676813277
145,95.1282486657371
144,95.1249880576925
143,95.1115258692877
142,95.5518580715154
141,96.5172608890848
140,97.4845102400562
139,98.4536102131161
138,99.4508263449082
137,100.5149025373
136,101.810390431832
135,103.117174497947
134,104.426097088592
133,105.776898450232
132,106.995245465294
131,107.699806040941
130,108.338443816613
129,108.979144801944
128,109.634637239425
127,110.293104491593
126,111.153734327623
125,112.077224942616
124,113.003097756238
123,113.931358891351
122,114.862174191057
121,115.816653874954
120,116.790778330242
119,117.794625072911
118,118.77685942287
117,119.763124571454
116,120.587745989133
115,121.13465217296
114,121.680572859082
113,122.228401237237
112,122.778140301674
111,123.935905565109
110,127.428173624031
109,131.174591490856
108,135.048452301463
107,138.778090374805
106,142.233460306653
105,143.28705304045
104,143.714677426103
103,144.144250673736
102,144.575775669477
101,144.919502200371
100,145.265333238785
