Unnamed: 0,Unnamed: 1
paper ermil,
,
,
Raman Shift / cm-1,INT
3200,31.440455161633
3199,31.6782027862451
3198,30.1884826916343
3197,58.0537913124867
3196,106.177131219743
3195,116.898098037241
3194,117.119358669837
3193,119.75981662473001
3192,85.6706248871145
3191,0.743888202334965
3190,-26.5675578842784
3189,-24.3791346734198
3188,-21.4784889129338
3187,-17.7223996683134
3186,-12.1060462577001
3185,39.9690749344442
3184,128.139133964118
3183,155.487399195058
3182,157.871006719599
3181,148.490390898837
3180,102.839035528569
3179,-17.9374554967626
3178,36.9665881555213
3177,229.428618534392
3176,277.12833998313
3175,277.132766511458
3174,276.365052968595
3173,263.097498846936
3172,223.935039039295
3171,228.765123976047
3170,266.960610933127
3169,276.188762210098
3168,265.645046191748
3167,198.985780008412
3166,124.879974284889
3165,51.9718233915865
3164,20.5064519601455
3163,23.2441374187316
3162,3.03423079605855
3161,-31.3582710438639
3160,-98.3417815122558
3159,-140.18056797032
3158,-105.390022429556
3157,-83.3962123351861
3156,-80.4350776159362
3155,-78.4045557006032
3154,-79.3696043617134
3153,-103.27354153445
3152,-126.203720709445
3151,-124.877341423484
3150,-123.296979798048
3149,-124.571700557384
3148,-34.0417007670182
3147,131.647960787956
3146,356.746176890448
3145,624.38418413057
3144,1033.95309817396
3143,1245.35903092166
3142,853.157287533345
3141,596.534287226151
3140,592.477184401246
3139,625.363744033614
3138,665.482687821143
3137,518.751202892103
3136,329.313358115132
3135,205.358444734089
3134,126.836636544031
3133,148.976057485927
3132,165.594732506589
3131,167.159704477771
3130,167.174240450639
3129,166.318352909293
3128,165.250768012834
3127,164.346289760656
3126,165.104871690831
3125,166.001220544385
3124,166.327433860318
3123,176.082817710375
3122,201.284681504408
3121,198.937329562127
3120,172.122762788269
3119,146.365371825702
3118,120.936234367153
3117,95.1596638499488
3116,69.4561357874995
3115,43.6280081277637
3114,26.036842609795
3113,27.1244833034941
3112,26.9758154563313
3111,24.0656818379748
3110,27.8445294181467
3109,36.9767384907611
3108,46.7590771650941
3107,55.9615138472334
3106,64.1140460514629
3105,70.6363859594706
3104,72.0870384257946
3103,72.77256551621
3102,73.0485783620483
3101,81.8828399270021
3100,104.502797185685
3099,115.509079391916
3098,116.585225630122
3097,146.085260740534
3096,190.428396989187
3095,233.638595211684
3094,281.27876304582
3093,361.32712363923
3092,426.669725377122
3091,411.839303462173
3090,376.328128648163
3089,311.880460784783
3088,263.588093979831
3087,241.247325842364
3086,197.264495191456
3085,134.433445873168
3084,111.708602555151
3083,110.751319181089
3082,110.442501062218
3081,110.348752608542
3080,110.257448672436
3079,107.300327404863
3078,89.8651525932322
3077,74.5134760363395
3076,71.8651218890851
3075,83.3491464749079
3074,121.745315696734
3073,127.995349902032
3072,88.5129292584315
3071,79.6236905410454
3070,98.9609379133225
3069,130.401855797911
3068,166.598598711782
3067,176.973136011882
3066,176.419493005603
3065,175.719715274685
3064,171.019310603608
3063,138.812149241127
3062,107.44374856812
3061,102.514988839731
3060,113.316747164264
3059,163.306120633442
3058,196.212338258802
3057,179.160548755874
3056,173.296236204959
3055,190.623891458998
3054,207.704003209863
3053,223.781836868296
3052,221.415102516555
3051,202.933678969568
3050,206.157909688134
3049,222.26106481702
3048,226.571728484322
3047,225.511306876509
3046,224.400947918217
3045,225.80803869944
3044,251.174597775546
3043,280.659857586166
3042,298.235133732652
3041,293.942588363765
3040,193.829240479753
3039,98.925028265822
3038,75.1372150336509
3037,66.5294231077628
3036,79.822673527715
3035,90.2820043428122
3034,90.2102990416389
3033,89.5349957349383
3032,88.6690865755148
3031,87.9582005615149
3030,87.495727872258
3029,93.5638194867754
3028,108.01613550247
3027,144.928290548306
3026,203.605320909424
3025,213.754126506855
3024,184.220135275446
3023,279.019879104838
3022,444.909219144953
3021,289.530418837546
3020,-32.437419911161
3019,-5.03775840974347
3018,195.435067428237
3017,334.179393602724
3016,433.311731047189
3015,353.07534221522
3014,223.782785718585
3013,244.475757246806
3012,304.736822002109
3011,283.082794919816
3010,247.006899455358
3009,261.303590952985
3008,285.407092593306
3007,299.289236518841
3006,308.073089677628
3005,296.826142774134
3004,280.38907566976
3003,253.690181400693
3002,225.488563591501
3001,198.197500341752
3000,175.282923337926
2999,171.690065947174
2998,166.284812389199
2997,142.080260109845
2996,124.642524595971
2995,144.648469888064
2994,159.677989389206
2993,137.690929755922
2992,121.149675796445
2991,141.308426869509
2990,167.216589318691
2989,201.642428805346
2988,229.628808654073
2987,230.812729107753
2986,229.378023580122
2985,227.946008526596
2984,226.516679790246
2983,225.090033216905
2982,223.666064655162
2981,222.244769956353
2980,218.557732602667
2979,206.289404160346
2978,195.493371207557
2977,193.318169902697
2976,196.322937798118
2975,216.284513201746
2974,233.66327805942
2973,233.963553129565
2972,232.469109491232
2971,230.954379802421
2970,229.442920867439
2969,227.943592997716
2968,226.451076014658
2967,224.97184804084
2966,223.50077569725
2965,222.049825503666
2964,218.982021278131
2963,207.741734521064
2962,196.961588347518
2961,194.374022677639
2960,194.194366897624
2959,201.890510627807
2958,209.092279616688
2957,200.396157966999
2956,190.273193426113
2955,195.795213118402
2954,203.984369990246
2953,204.480439764875
2952,200.999897666971
2951,175.722839155708
2950,145.885823591655
2949,137.061132061921
2948,135.902821878962
2947,134.75989245856
2946,134.676089884097
2945,161.45268212296
2944,198.321194826847
2943,210.267396949716
2942,208.790174921582
2941,201.379917975188
2940,190.237241607301
2939,190.248563613206
2938,198.142214345312
2937,206.002932176981
2936,214.114290476881
2935,200.495976149609
2934,161.29351297135
2933,138.111566326596
2932,136.753483959056
2931,138.67640801269
2930,146.53728031601
2929,160.008354148105
2928,185.016867673778
2927,203.893101037356
2926,203.753870186337
2925,204.058580122514
2924,210.674826786267
2923,217.793458918894
2922,224.950865813657
2921,230.960445572542
2920,230.354856783391
2919,229.907458711081
2918,242.37267206066
2917,257.579209438595
2916,266.287869472053
2915,271.926308576022
2914,248.929181938709
2913,214.297129290393
2912,195.250595763605
2911,185.383048259681
2910,194.407713306204
2909,217.636337695771
2908,221.498985695862
2907,202.933961745866
2906,191.193187186597
2905,189.539876038061
2904,190.473432311751
2903,196.75374367139
2902,201.395808722063
2901,200.258795280728
2900,198.64707019146
2899,196.951095446308
2898,191.682156344074
2897,163.698302279254
2896,133.584040943028
2895,125.802423388591
2894,124.540091561105
2893,123.311720615891
2892,122.198726901934
2891,130.372115643059
2890,144.600181321429
2889,166.145306102381
2888,194.465638254363
2887,207.731339183377
2886,198.986787788704
2885,189.872362215778
2884,180.873370049931
2883,184.699084500618
2882,230.433811825673
2881,267.302954441119
2880,238.74885270185
2879,203.505153630082
2878,189.893128957552
2877,180.736822165394
2876,161.494914723877
2875,139.305648527692
2874,165.107222241695
2873,219.562459773578
2872,225.774677488982
2871,182.619217808476
2870,152.185750459891
2869,143.22928069844
2868,140.370670250643
2867,151.910584053132
2866,164.061901983353
2865,176.163338673395
2864,186.967544954575
2863,187.68819335544
2862,187.318949174238
2861,205.37688198264
2860,229.478282087636
2859,237.490196931953
2858,235.967038117135
2857,224.815791671489
2856,203.442208785299
2855,191.12593159515
2854,195.746868092809
2853,199.436086718005
2852,198.213310026319
2851,195.858474309035
2850,188.711452534064
2849,180.803437675936
2848,173.019773447298
2847,165.524486982615
2846,169.717613163217
2845,180.567363210187
2844,179.348988919966
2843,165.166866396298
2842,151.240528133694
2841,137.616690627469
2840,127.82275242594
2839,131.235483541249
2838,135.812305546189
2837,140.241766616437
2836,143.328626783202
2835,125.796006966237
2834,101.464645146505
2833,100.756968418465
2832,117.150410418725
2831,128.433580669617
2830,133.108427564805
2829,136.181877128445
2828,134.968108521706
2827,132.706641413478
2826,126.234982778488
2825,119.732730813129
2824,121.443115537436
2823,125.501887610784
2822,126.163337899092
2821,124.692990122036
2820,120.836977628493
2819,113.787187809803
2818,109.860010308835
2817,113.699279246845
2816,117.849836099621
2815,121.945098196803
2814,125.72661731907
2813,125.746513802923
2812,124.395922071015
2811,106.734266937039
2810,78.9299408545384
2809,67.8886479274991
2808,82.5117266081149
2807,93.2938150565875
2806,92.647960379826
2805,94.6059149421367
2804,120.117843810646
2803,147.833635066511
2802,133.897438225764
2801,101.242299921622
2800,87.523171146029
2799,91.3158337472389
2798,90.5292330511071
2797,79.2862219635556
2796,70.9911430310304
2795,77.8586857082025
2794,85.7924828261277
2793,83.1244175613722
2792,76.8856783782991
2791,73.5669571145553
2790,72.3409856746106
2789,77.9902093149055
2788,95.7632658562938
2787,112.263556678756
2786,121.436890496373
2785,128.890672945221
2784,129.524887408961
2783,128.28127978788
2782,124.135883651381
2781,118.102411248236
2780,121.342444936895
2779,138.635572079946
2778,154.193894708985
2777,162.716173877465
2776,169.099512496265
2775,158.118971969434
2774,142.308666248877
2773,135.185896218415
2772,133.318649226966
2771,134.881206917394
2770,142.425505410701
2769,147.817700261758
2768,143.030904758148
2767,136.90522181875
2766,130.906943071374
2765,125.099331508877
2764,121.81091118404
2763,120.484702522015
2762,117.803052111206
2761,112.159376763589
2760,104.264421572848
2759,83.3497727626044
2758,60.8558446905891
2757,52.9291750405556
2756,51.6851372610121
2755,44.5347745480632
2754,30.1257210972262
2753,19.2006521691894
2752,17.5155272695395
2751,16.4444084088619
2750,15.3303472410655
2749,14.4087382051281
2748,33.5013587678376
2747,65.6589876727534
2746,87.8911479772549
2745,91.1595443334927
2744,93.928232351841
2743,96.7190567016093
2742,99.3998763446508
2741,99.4626965038901
2740,98.3704359719799
2739,98.8989017263525
2738,101.5527235806
2737,104.968881516738
2736,111.240863235222
2735,114.775239921751
2734,78.089541488419
2733,29.0211988332722
2732,19.6690771499293
2731,46.2904937662754
2730,65.670840932585
2729,65.5709200552846
2728,64.3698473336563
2727,63.1138482019607
2726,61.8681262420359
2725,62.7549240834428
2724,65.1260677839686
2723,66.4948517220101
2722,65.203789695704
2721,64.5161246307914
2720,69.6361691369972
2719,75.9314601865774
2718,77.7007780822781
2717,76.5732120207801
2716,75.3488458999756
2715,73.9261265469111
2714,72.9561874865047
2713,74.7777919152058
2712,77.0626579401695
2711,77.072934755653
2710,75.5787198115057
2709,74.1927720538347
2708,73.0216813183666
2707,71.8561656009227
2706,70.6673961978201
2705,69.3476990916195
2704,53.0892201211931
2703,26.7278214286727
2702,11.3415207365374
2701,20.2196269291545
2700,28.8341785952196
2699,29.1786102089309
2698,27.9061040572091
2697,34.6156174034783
2696,47.2886261165272
2695,57.9644798218679
2694,63.8357087702683
2693,68.8171473903715
2692,68.8862774702612
2691,67.7078344491499
2690,66.6194438865812
2689,65.6116835316246
2688,63.7862632219358
2687,59.2703219619408
2686,54.4995849995001
2685,49.8696372485903
2684,45.2998509218244
2683,43.8183596392072
2682,45.9357216666372
2681,48.1131339154554
2680,50.2573244347464
2679,52.2577614170809
2678,52.2283741391006
2677,51.2295511062323
2676,51.3166464594866
2675,53.2781677064028
2674,54.9434706702675
2673,54.2350137041657
2672,53.0256973763911
2671,51.8321087326217
2670,50.6428875730964
2669,50.2070770341841
2668,51.9119345206689
2667,53.7547819016261
2666,55.8435243609685
2665,57.9904618893167
2664,58.6238454859135
2663,57.3914692987768
2662,58.9880069794315
2661,74.5343795923291
2660,91.9158307000503
2659,101.07925264606
2658,105.084884118241
2657,106.023118688837
2656,98.8348457278157
2655,91.2088088216266
2654,76.5044056767299
2653,59.4062457789577
2652,49.8203041969703
2651,48.8094839095893
2650,50.0387823884172
2649,61.9032813960101
2648,75.0207121084887
2647,79.3323414632886
2646,78.169616709415
2645,77.0177125562232
2644,75.8889436706473
2643,75.1687700107579
2642,80.6568341983913
2641,88.013965566512
2640,88.3612528914971
2639,78.2452427280244
2638,68.926395937951
2637,63.6725914720987
2636,59.136985012665
2635,57.9849926970238
2634,59.5050748523086
2633,60.9837795005922
2632,62.3927981972808
2631,63.6663457343398
2630,63.0406373508182
2629,61.5540622309713
2628,61.0259849608428
2627,62.605976783382
2626,64.0900967310269
2625,63.4276802428849
2624,62.1215735562241
2623,63.1031153578847
2622,67.1457069120501
2621,69.9577059995346
2620,64.9594897861221
2619,58.5224476919555
2618,56.1506437886345
2617,57.346490043411
2616,59.0489112259909
2615,63.0434978583669
2614,67.2122568933674
2613,66.2454867098627
2612,62.2545054876181
2611,58.9742942181483
2610,57.7433635940109
2609,56.6519720093287
2608,55.3409322447262
2607,53.939102762741
2606,51.0047221039555
2605,44.7023791267011
2604,38.588717597609
2603,36.1981166098936
2602,34.9416510858727
2601,33.7452642373776
2600,32.6405207026611
2599,31.5460915535577
2598,30.3928230645312
2597,29.2306295006456
2596,30.106845802333
2595,33.6069775837345
2594,35.9763458907229
2593,31.0290120965521
2592,24.8490822082903
2591,28.1035140267422
2590,41.6234910105897
2589,55.8116515774499
2588,73.9815509234973
2587,92.295549633806
2586,85.189340612777
2585,54.609472705487
2584,27.2477739981137
2583,14.3159215963222
2582,3.72257289718159
2581,10.3733709809991
2580,30.7636215755038
2579,46.4242667949332
2578,42.7167197517418
2577,36.8064865152167
2576,16.8538993262838
2575,-12.7643108233516
2574,-31.4094954105563
2573,-6.80039646115361
2572,22.2920129053662
2571,33.0977691795672
2570,32.0364322696528
2569,29.6309402367731
2568,21.9539575316202
2567,13.6908586694203
2566,13.6978037295462
2565,19.1303780444072
2564,24.6979677533558
2563,30.2789332679119
2562,35.656941154098
2561,37.1967168619232
2560,35.9084095012798
2559,34.2357361293372
2558,30.778314978836
2557,27.0840362780477
2556,30.0547252862847
2555,37.9942557803533
2554,44.100468562671
2553,40.3863772285663
2552,35.413521032772
2551,24.5855253958559
2550,8.07724548880728
2549,-4.0803850560307
2548,7.92483507578272
2547,23.469871432626
2546,32.1498910695357
2545,32.8830487571052
2544,33.172473427968
2543,30.5994070696887
2542,27.398462097551
2541,25.9499458019589
2540,26.7321530751491
2539,27.6908574812212
2538,30.559592788874
2537,33.8950933502289
2536,36.1768619936344
2535,36.8996134039468
2534,37.7009835945537
2533,40.3001223054744
2532,43.4788186719942
2531,46.4774587595377
2530,49.3038509823615
2529,52.0210276847589
2528,52.1363432806348
2527,51.0361808313423
2526,49.4817093207799
2525,46.5869394109524
2524,43.6082532936089
2523,40.4524203286525
2522,37.1917369271413
2521,34.1585505321507
2520,32.4072733984955
2519,30.8559374953137
2518,29.4147854574188
2517,28.0745370286926
2516,26.3883459075131
2515,21.9864177132614
2514,16.9152534457201
2513,15.1026797588844
2512,17.9434722409683
2511,20.269804591437
2510,15.458611105055
2509,8.45156046656778
2508,3.17248951488527
2507,2.11854989100967
2506,1.33074176696313
2505,3.95365507693734
2504,8.3832611817977
2503,11.9747510852997
2502,12.9898603029461
2501,13.7572626402244
2500,20.5431424657373
2499,32.5630914066136
2498,43.2680877671183
2497,44.2431876048554
2496,43.2093906307971
2495,42.1810368861125
2494,41.1602862472838
2493,40.145152823732
2492,39.1988133704198
2491,38.2809302846642
2490,36.4656181236564
2489,31.6727122807512
2488,26.6228121932357
2487,28.0986871198218
2486,33.8777699403046
2485,39.1797763009172
2484,42.0017107327785
2483,44.4279677156957
2482,44.5372209848982
2481,41.4662792196883
2480,38.6488268193193
2479,39.6152585385663
2478,41.8185800557164
2477,43.2303746950344
2476,42.440942537536
2475,41.5281481915573
2474,41.3868926995865
2473,41.7429270504304
2472,41.9443127693309
2471,41.0149391023193
2470,39.8481274701582
2469,36.3033241402758
2468,28.3771394997643
2467,20.5131831620845
2466,16.1188796064746
2465,13.2910558284542
2464,10.4998285132775
2463,7.81969010608909
2462,5.15827453285828
2461,4.38542962957659
2460,5.54457418119993
2459,6.54476005446294
2458,5.89766110739034
2457,4.81914155843806
2456,3.31553082906214
2455,0.678538093266458
2454,-2.03847462123989
2453,-1.85129732739555
2452,0.403848504320279
2451,2.12333865482367
2450,0.233297629790308
2449,-2.33486245879963
2448,-3.93801004535725
2447,-3.85890047021798
2446,-3.76769375984583
2445,-4.41610926554539
2444,-5.47180494769893
2443,-4.88566664343451
2442,4.07710063726511
2441,14.168783964077
2440,14.9652524036316
2439,3.20638248257169
2438,-8.1812870516877
2437,-9.1286923128832
2436,-5.41427084547458
2435,-1.97462187465533
2434,0.395190669804625
2433,2.56968447158156
2432,2.05582301470348
2431,-2.09150892835398
2430,-6.23964137291569
2429,-10.2555468001895
2428,-14.1273247197809
2427,-17.461117324238
2426,-18.6328572446061
2425,-19.5495732909152
2424,-19.0874055935115
2423,-17.0511578049732
2422,-15.2344670082432
2421,-17.67658385877
2420,-21.8056720397719
2419,-25.2868345263768
2418,-26.3372661420629
2417,-27.1497952533851
2416,-22.1791946284147
2415,-9.53243898552843
2414,3.03752519744904
2413,22.8009581848547
2412,46.0505477842022
2411,60.8369289575462
2410,39.5031891052161
2409,13.8662147652124
2408,-2.55651777344459
2407,-3.61284199430927
2406,-4.53757139293222
2405,-7.59078381085486
2404,-11.748690107974
2403,-16.6468139433491
2402,-26.7864167240271
2401,-38.0174861308364
2400,-45.7197586939266
2399,-46.7337504207806
2398,-47.4977941576297
2397,-40.2993707707899
2396,-28.322510085195
2395,-16.5305170162693
2394,-5.67349358266279
2393,4.54930188529918
2392,11.9074830535147
2391,11.3249560066973
2390,10.2354497523639
2389,9.35306064680225
2388,8.6720976200935
2387,8.04977341179716
2386,8.37009655633338
2385,9.04590743968532
2384,9.11064585215907
2383,6.60469033090515
2382,3.77002842714609
2381,0.960758362212537
2380,-1.91311725238587
2379,-4.7834096850498
2378,-5.52657856222563
2377,-5.14314640458358
2376,-4.17402239994196
2375,1.83222524765875
2374,9.08992893245917
2373,14.1581483698359
2372,13.6933010128721
2371,12.9223857100179
2370,16.7523029486252
2369,25.2138374626678
2368,33.421068952661
2367,36.2571467221633
2366,36.9573465958797
2365,36.9199821848374
2364,32.5909389122923
2363,27.6900452501242
2362,24.0743969558805
2361,23.1887196427908
2360,22.3968872575972
2359,16.455350778992
2358,6.04734328786971
2357,-4.10025744346906
2356,-7.27085885196891
2355,-8.17448227410325
2354,-9.34050382969342
2353,-11.803693347267
2352,-14.4167442208497
2351,-16.1519430535938
2350,-16.1462324888587
2349,-16.0730876276392
2348,-12.005852684662
2347,-4.59602999656057
2346,2.47733635737278
2345,3.34453935969902
2344,2.03697326964467
2343,0.9620293422559
2342,1.06344395439451
2341,1.3427525143281
2340,1.29084067576196
2339,0.472705432102435
2338,-0.371470590471402
2337,-2.60958706554726
2336,-6.20201909583833
2335,-9.62062010029321
2334,-9.56418670494948
2333,-8.02877473040019
2332,-6.62127210750432
2331,-6.05763491250803
2330,-5.64500515329635
2329,-5.58679082251249
2328,-6.50826376816144
2327,-7.47767720949394
2326,-8.3446076520653
2325,-9.05127710469048
2324,-9.68623059869039
2323,-6.51063439731491
2322,-1.04072998277
2321,3.95616479348711
2320,3.60087612080782
2319,1.77069391030084
2318,-0.638333001764058
2317,-5.84916856749021
2316,-11.3949170875056
2315,-13.1827536083639
2314,-7.02942032751667
2313,-0.787701033152247
2312,0.455707797498424
2311,-3.82643337356098
2310,-7.9766829845734
2309,-10.9745820702644
2308,-13.3142842488475
2307,-14.9408797280461
2306,-10.1961722065356
2305,-4.03907489807746
2304,0.904023998757384
2303,0.0261303339405241
2302,-1.52750474955713
2301,-2.47093434569043
2300,-1.98880865978781
2299,-1.47622807307919
2298,-1.49525565163315
2297,-2.16313202949301
2296,-2.86964553721256
2295,-6.6998560319411
2294,-12.3232405579694
2293,-17.5472338899096
2292,-19.3891855481473
2291,-20.1555250183017
2290,-20.8887655771181
2289,-21.4859771316224
2288,-22.0607293640307
2287,-19.5369020371252
2286,-7.54534460613697
2285,5.02824827473156
2284,13.0544944299213
2283,14.5569472326228
2282,15.9750651741768
2281,17.2503084068688
2280,18.4511204962042
2279,19.6682279099137
2278,20.2904747635699
2277,20.6189086800474
2276,20.8073092995287
2275,19.4225477472848
2274,17.6158004646031
2273,15.82416645165
2272,13.9176255708506
2271,11.9577346053898
2270,9.99245315999277
2269,8.04634768342117
2268,6.10263724590149
2267,4.63577412803702
2266,4.04957736369247
2265,3.48448501592405
2264,2.45984015331136
2263,0.956344210421379
2262,-0.529698238469459
2261,-1.24577559964493
2260,-1.56968957261819
2259,-1.9340061582174
2258,-3.01443237711164
2257,-4.33988699145828
2256,-5.8349506950788
2255,-8.75718755509532
2254,-11.955202241579
2253,-14.7430301935603
2252,-15.543228251782
2251,-16.1036162247474
2250,-16.6267913090425
2249,-17.0521632827971
2248,-17.4724108903821
2247,-16.3255404991328
2246,-12.4959807134733
2245,-8.73337922618104
2244,-8.1246393856708
2243,-10.7629441071542
2242,-13.3664721903703
2241,-11.2925836645958
2240,-6.05864508434226
2239,-1.45721286952916
2238,-7.42739437050262
2237,-17.6884850844125
2236,-26.759946148928
2235,-21.7653893569112
2234,-12.717717747497
2233,-6.1600634410256
2232,-16.9651007127832
2231,-30.6564619408158
2230,-40.0623451247737
2229,-31.9253519099309
2228,-21.9145996379658
2227,-12.1249506226491
2226,-2.93318542840462
2225,6.21307223562983
2224,11.024187466959
2223,6.36046930623598
2222,1.38246780048691
2221,-2.7303003714944
2220,-5.87893676606243
2219,-9.01416737712664
2218,-8.42997969634961
2217,-4.44328614790764
2216,-0.486553241895729
2215,0.190164290763696
2214,-1.31105812182583
2213,-2.79271031189633
2212,-3.60000127138375
2211,-4.07582360009558
2210,-4.5168178786232
2209,-4.33444175216994
2208,-3.92244950115749
2207,-3.5913829288344
2206,-4.15553413264197
2205,-4.96723276849116
2204,-5.55931127154905
2203,-4.48703340266127
2202,-3.07181148202376
2201,-2.06195149834654
2200,-3.27056524343974
2199,-4.81546054549493
2198,-5.8003856089912
2197,-4.481721523943
2196,-2.91536070623655
2195,-2.37993567398279
2194,-5.08819888915131
2193,-8.02745629526861
2192,-9.48507831202292
2191,-7.32486414599561
2190,-5.00846059126458
2189,-2.91673817439724
2188,-1.24459064027707
2187,0.41694828688452
2186,1.48162267106267
2185,1.65405932391877
2184,1.81627679450698
2183,1.52352817800602
2182,0.705271872086096
2181,-0.11250742855048
2180,-0.275338726229817
2179,0.142136607385336
2178,0.553733807675142
2177,0.337656297109154
2176,-0.314934735518966
2175,-0.920140285449981
2174,2.79732594833519
2173,9.4311020498832
2172,15.7867927227404
2171,9.67186491456509
2170,-3.1989718214916
2169,-15.6048833637972
2168,-16.2966843730726
2167,-11.8339086454883
2166,-7.58967725195112
2165,-6.95949103598214
2164,-7.63208251791763
2163,-7.79464397699839
2162,0.749708274072858
2161,12.4014558174731
2160,22.8544263973713
2159,18.7994045599198
2158,10.4963946074419
2157,2.93005475714354
2156,0.957967339873441
2155,0.465306584102636
2154,0.216978103323798
2153,2.25886309700861
2152,4.84914186055709
2151,7.82898820760275
2150,15.1917628362808
2149,23.7783097445119
2148,29.9845678746169
2147,17.9814280722717
2146,2.21274246987634
2145,-11.0846681053354
2144,-9.55057875726375
2143,-5.10086401286257
2142,0.135611868611253
2141,10.4929486773028
2140,21.3829018040097
2139,29.4663669133868
2138,19.1344161424869
2137,5.33508469580703
2136,-6.77056693078768
2135,-9.40611350165738
2134,-10.5415393132803
2133,-11.7562527676408
2132,-13.350705289612
2131,-14.9745108201445
2130,-15.9300754068888
2129,-12.6105663521555
2128,-8.54927796115145
2127,-6.0547158025007
2126,-11.9119440745843
2125,-19.0404980534275
2124,-24.781164754479
2123,-21.3204991586057
2122,-16.5137932230963
2121,-12.0838044717829
2120,-9.7715300245402
2119,-7.94759737281607
2118,-6.30513133667754
2117,-5.78966952879246
2116,-5.51197246870848
2115,-5.06751572818685
2114,-3.20425914365839
2113,-1.01150171144856
2112,0.798618680095365
2111,0.136801411059092
2110,-1.0547672774093
2109,-2.30937288718879
2108,-4.06259560067468
2107,-5.92236901570296
2106,-7.59427044842775
2105,-7.3432835980038
2104,-6.63584300749828
2103,-6.11465622510501
2102,-7.74697003664208
2101,-9.94928485363804
2100,-12.0265982768985
2099,-12.1751113797707
2098,-11.7510698854118
2097,-11.1247217179507
2096,-7.86297620046643
2095,-3.7151357893823
2094,0.622486141356269
2093,6.70762006156451
2092,13.4929079489927
2091,20.2733740803169
2090,23.2767854450659
2089,24.6830523575045
2088,26.059304455261
2087,26.7940564435975
2086,27.2028367790661
2085,27.5509738823163
2084,24.70823434104
2083,19.8799704130448
2082,15.1183700198874
2081,12.7042802428516
2080,12.2253095753154
2079,11.7461009708723
2078,13.8302649265647
2077,18.4336975432901
2076,23.1383750940202
2075,24.9279868878882
2074,23.4442082692324
2073,21.9712189655061
2072,19.8749565731912
2071,16.7323813712189
2070,13.6737054382697
2069,12.6501725912854
2068,15.3434970107514
2067,18.1062687823558
2066,21.5397624456759
2065,26.6805648861731
2064,31.8382603428221
2063,35.1461524231963
2062,32.6626313443573
2061,29.8032212733909
2060,27.3089429141126
2059,26.1338333260234
2058,25.1062491379675
2057,23.7984283151828
2056,20.896552168527
2055,17.7879317404509
2054,15.1136592672313
2053,15.4793875178383
2052,16.4920697840603
2051,17.338020441823
2050,16.243541647702
2049,14.6077453215518
2048,13.2557459861368
2047,17.0985176888645
2046,22.9772568889591
2045,28.6938224332202
2044,28.9467217094855
2043,26.3239172776987
2042,23.7277852948512
2041,22.0185531791888
2040,20.9699178586199
2039,19.9242778723381
2038,21.0957421867944
2037,24.641169896423
2036,28.0435338184087
2035,29.4672940015135
2034,27.3968232044399
2033,25.2695467486248
2032,21.4283054193991
2031,13.4279372286884
2030,5.32481338691251
2029,-0.0343724996098018
2028,3.45166942818525
2027,7.53835423193744
2026,10.5881680141742
2025,7.63548491188518
2024,3.77556083396507
2023,0.0590390711376524
2022,-2.56086288374752
2021,-5.00112914436908
2020,-7.38865665402231
2019,-9.0453485816453
2018,-10.4424441490668
2017,-11.7708851088509
2016,-10.7145312781823
2015,-8.32175803170197
2014,-5.94814338140594
2013,-4.31500058829895
2012,-3.34357635704142
2011,-2.33499765108241
2010,-1.46787535110487
2009,-0.79878516577785
2008,-0.134464175049508
2007,0.134592299664621
2006,-0.404641842648957
2005,-0.974209809821476
2004,0.857035567246798
2003,11.9154410568649
2002,23.7252514599695
2001,34.2852199566081
2000,39.6346870537154
1999,44.006663786118
1998,47.8893421818365
1997,47.4482516023598
1996,45.6925485009118
1995,43.9911899919527
1994,42.7981094722541
1993,41.8731594504245
1992,40.960787172848
1991,40.6238770043079
1990,40.7801925124201
1989,40.913460095868
1988,39.9095771945625
1987,37.0288261531136
1986,34.1337225457763
1985,31.3525908338942
1984,28.6222979235124
1983,25.9098187826419
1982,24.8715906683479
1981,31.4709744584127
1980,39.2574244649331
1979,46.3035357256601
1978,46.6234639458321
1977,45.3542207137619
1976,44.135272244038
1975,44.0795827804535
1974,44.5054113099757
1973,44.9576390110108
1972,45.6425448984033
1971,46.4706253807207
1970,47.2939778746767
1969,49.7944964402917
1968,54.9010968146676
1967,59.8623531413223
1966,63.358990805787
1965,62.4749576123803
1964,61.2760396665911
1963,59.9347826367456
1962,57.8169893226991
1961,55.587813056861
1960,53.5858290277672
1959,54.9363764115414
1958,57.2667358695435
1957,59.5552536106758
1956,59.8703856840291
1955,58.920968861912
1954,57.9728134813262
1953,56.9907797363218
1952,55.9531183508079
1951,54.916202969746
1950,53.8276088013068
1949,52.6431754563946
1948,51.4729559874636
1947,50.1983685192296
1946,48.3781215061429
1945,46.4847547356071
1944,44.8762557029983
1943,47.1132163025973
1942,50.4316888427439
1941,53.7057145508574
1940,53.935294374196
1939,52.2322082000592
1938,50.5305924215313
1937,49.1070924325072
1936,48.1338913263547
1935,47.177575733848
1934,46.4794404977916
1933,46.5297792370375
1932,46.6240831605928
1931,46.9367143038182
1930,48.8463698709737
1929,51.1395056671612
1928,53.4349939952801
1927,56.0158266801476
1926,58.7255111862021
1925,61.4171846153533
1924,63.9889289575727
1923,66.4526301973618
1922,68.9025719579723
1921,70.2045928363761
1920,68.9481425716618
1919,67.597709280195
1918,66.7772078056759
1917,68.5604258335851
1916,70.6160846031319
1915,72.4507715656755
1914,71.56247085352
1913,69.8394811415374
1912,68.1261403641492
1911,67.2892935211359
1910,67.0989110829884
1909,66.9070801497557
1908,66.3390295064997
1907,65.0578318933336
1906,63.761370437633
1905,62.588908141836
1904,61.9847501939013
1903,61.4513086249762
1902,60.892455721954
1901,59.9600340982034
1900,58.9032227402616
1899,57.8480649219205
1898,57.2301300744091
1897,56.9720912335201
1896,56.711609440733
1895,58.6317822889334
1894,65.243337916129
1893,71.9801050887816
1892,77.5964537612437
1891,77.25663548893
1890,76.0196145979765
1889,74.7887326937627
1888,73.6555141001024
1887,72.5613018375616
1886,71.4679013784478
1885,70.6231963284981
1884,70.0337542973833
1883,69.4438052419662
1882,68.7330011368872
1881,67.7014545727498
1880,66.6538191625085
1879,65.2495110471775
1878,61.2571033612022
1877,56.7616877044982
1876,52.4193561664192
1875,53.5387955618773
1874,57.450519979923
1873,61.3527170909933
1872,63.9609214043863
1871,64.7589781152324
1870,65.5471154832932
1869,66.0052760257364
1868,65.2760145865074
1867,64.4244646780232
1866,63.6522617461212
1865,64.1239750074179
1864,65.0186443161046
1863,65.9066656285866
1862,67.3323095650518
1861,69.2448886158369
1860,71.1453545387093
1859,73.6660379791967
1858,77.6215029081792
1857,81.642804111926
1856,85.3190709724243
1855,84.6362940690287
1854,82.9077134707478
1853,81.1788510763351
1852,79.1650017051077
1851,76.9732397263249
1850,74.8340748928603
1849,73.38797532801
1848,73.4321472049971
1847,73.5308792184866
1846,73.4223884211835
1845,72.0314158623206
1844,70.4198299886419
1843,68.8442498754174
1842,67.6496348160817
1841,66.6510390742405
1840,65.6527264497102
1839,65.1494807056423
1838,65.4931921202479
1837,65.8181367323535
1836,65.9927740327244
1835,65.3243006244309
1834,64.5136244610374
1833,63.7186740240385
1832,63.3825980467659
1831,63.2664000016564
1830,63.1649492169928
1829,64.8394032733239
1828,69.5038906934878
1827,74.0402698212169
1826,77.8555168107827
1825,77.6424434709303
1824,76.7458432556068
1823,75.9063426056563
1822,76.8158943038395
1821,78.5831025943868
1820,80.4170664641056
1819,80.5762028077597
1818,77.8758873954171
1817,75.1243374449009
1816,72.5560814434379
1815,71.5341301891318
1814,70.7835523418536
1813,70.0130876392141
1812,67.761956459136
1811,64.5909011369635
1810,61.4945981136404
1809,59.3597075190492
1808,59.3865668836386
1807,59.5035415623945
1806,59.4913764402296
1805,58.5758130161554
1804,57.4551420435644
1803,56.3558338819028
1802,58.1634900494242
1801,62.101774779351
1800,66.1624828004002
1799,68.7115290038255
1798,67.2533946352489
1797,65.5357458694616
1796,63.9052099999118
1795,63.1027693649478
1794,62.5635573525197
1793,62.0237505330245
1792,63.2082674505938
1791,66.3474310669531
1790,69.5974244073305
1789,72.1744812563121
1788,72.2690411994061
1787,72.1076836132557
1786,71.9218139882177
1785,71.4004991617545
1784,70.7185188616131
1783,70.0356775905672
1782,70.9831210924939
1781,75.2556460171096
1780,79.4652144918731
1779,83.207879378616
1778,83.3412014372868
1777,82.6433613635623
1776,81.9395532437454
1775,78.4862283626058
1774,72.6114794433359
1773,66.5839386565312
1772,61.5688002987043
1771,59.6726191979721
1770,58.006320117834
1769,56.3946015466921
1768,55.4065529091686
1767,54.6709134805927
1766,53.934773492405
1765,52.9191436755771
1764,51.4296758192164
1763,49.9309716623208
1762,48.8001611108027
1761,50.8783779595358
1760,53.75413382503
1759,56.5251317438403
1758,58.5623797416173
1757,59.9340241817096
1756,61.3031368775438
1755,63.4707741011742
1754,68.2752121059809
1753,73.3395973250744
1752,78.3584855330898
1751,82.0768676563772
1750,85.1549017031666
1749,88.2248646923476
1748,91.1160596351777
1747,93.5872568830716
1746,96.133200969376
1745,98.5005179736485
1744,99.9061917532485
1743,101.039431056728
1742,102.167226951045
1741,102.351677531954
1740,101.234317963005
1739,100.111750348596
1738,98.6780248870102
1737,95.2820098172692
1736,91.5277803687198
1735,87.7888381985107
1734,83.1128501243719
1733,77.6281448238142
1732,72.1593831779247
1731,67.3774932390583
1730,65.5236120156371
1729,63.9772740010966
1728,62.4412911928162
1727,61.3263446427544
1726,60.4558872848919
1725,59.5852022287476
1724,62.4510574609611
1723,75.7455666753185
1722,89.7064207673188
1721,103.233721406571
1720,107.452611110255
1719,108.025455640456
1718,108.593765689399
1717,108.248643605623
1716,106.056597295437
1715,103.82555371381
1714,101.644709772795
1713,99.4302055545066
1712,97.2242340956144
1711,95.0255793239516
1710,93.115330951948
1709,91.6599699891235
1708,90.2107095208778
1707,88.7171151283657
1706,86.8608048961691
1705,84.9596948382158
1704,83.0282211543388
1703,80.7004649508146
1702,77.8632716710112
1701,75.0319873974742
1700,73.3490577927899
1699,80.0135451316393
1698,88.3050584090744
1697,96.5697354457568
1696,99.9791520044113
1695,98.3796685283436
1694,96.7573446609384
1693,95.2154696637606
1692,94.1636713945879
1691,93.1900848120163
1690,92.2216916617981
1689,90.3048862883431
1688,87.4795111118064
1687,84.7258690268388
1686,82.1346490706718
1685,80.7201129936198
1684,79.4998354579231
1683,78.2818048241587
1682,78.9087884497421
1681,81.2212454056262
1680,83.5219094722765
1679,87.0282289611063
1678,98.1455807448096
1677,110.313089861871
1676,122.034339243201
1675,126.720805727204
1674,124.644024570052
1673,122.610180839755
1672,120.562075921728
1671,118.615399466892
1670,116.721583935073
1669,114.798829814894
1668,113.400798928694
1667,112.488242251045
1666,111.572716613855
1665,110.600956765147
1664,109.31772866176
1663,107.971445011601
1662,106.626819003858
1661,107.117913371027
1660,109.447022350696
1659,111.855371520163
1658,114.303438463206
1657,117.033416259724
1656,119.928664516269
1655,122.80121931126
1654,123.636053591196
1653,122.142919472728
1652,120.626082717762
1651,119.078154386995
1650,117.277522449492
1649,115.42014061068
1648,113.53657628744
1647,112.778457946089
1646,113.710332879599
1645,114.647105348351
1644,115.544382072168
1643,115.43248171901
1642,114.994727817803
1641,114.553836306286
1640,113.816269735601
1639,112.4434739972
1638,111.067058019905
1637,109.704340374831
1636,108.605235038656
1635,107.613280763823
1634,106.621440184098
1633,105.136196808569
1632,102.239300655126
1631,99.2015737332154
1630,96.34460800182799
1629,101.184957828875
1628,110.077623022491
1627,118.905084919099
1626,126.355915236494
1625,127.272682631165
1624,127.400345567129
1623,127.522696234867
1622,127.384991164517
1621,127.017956089809
1620,126.664830847612
1619,126.060192819736
1618,123.875419367392
1617,121.425775169423
1616,118.984226347724
1615,118.78839005741
1614,122.171897433345
1613,125.57658506178
1612,128.697367679591
1611,130.07123338997
1610,130.916413580829
1609,131.754461198657
1608,132.485470969138
1607,132.992956386954
1606,133.483341351448
1605,133.966827707992
1604,135.952183352534
1603,138.696343058009
1602,141.424205519788
1601,143.421005755628
1600,142.149453954311
1599,140.454418475751
1598,138.761337640372
1597,136.835618302325
1596,134.675510461203
1595,132.518892438683
1594,130.37738533905
1593,128.345134093499
1592,126.341906377723
1591,124.342618059679
1590,122.51545487837
1589,121.034500097151
1588,119.566352518712
1587,118.051927452874
1586,114.941290848639
1585,111.150485543896
1584,107.372638501174
1583,104.78901176234
1582,106.838956888461
1581,109.345209685309
1580,111.837751812998
1579,112.301209283703
1578,110.677524832363
1577,109.05545604302
1576,107.59961424315
1575,107.922086597705
1574,108.725824557266
1573,109.580536243577
1572,112.425435206399
1571,119.244196416186
1570,126.177112221459
1569,132.978751926444
1568,134.540939906852
1567,133.378123290191
1566,132.215084051657
1565,131.088200454253
1564,130.139931592296
1563,129.215022710905
1562,128.289365974259
1561,127.412444387385
1560,126.601441277366
1559,125.78988210839
1558,124.934377020186
1557,123.351215660572
1556,121.510193409946
1555,119.670732497944
1554,117.816138033325
1553,115.908327121797
1552,114.000205992067
1551,112.096275145521
1550,110.877192888205
1549,110.280435956036
1548,109.68168351772
1547,109.109268532684
1546,108.79244531042
1545,108.54567065325
1544,108.320263718949
1543,107.865333816007
1542,106.715665778566
1541,105.517860192999
1540,104.323228600514
1539,105.117795246885
1538,107.571316657792
1537,110.017635667012
1536,112.288251629101
1535,113.017012831528
1534,113.37514481119
1533,113.728831943758
1532,113.901636754309
1531,113.656690857767
1530,113.369791461676
1529,113.083066234095
1528,113.678537642783
1527,114.96635541167
1526,116.247688558162
1525,117.647350439949
1524,120.153746309057
1523,122.910114853294
1522,125.654289896041
1521,127.080990640235
1520,125.451782278724
1519,123.695315339764
1518,121.917460647328
1517,120.757537895353
1516,120.106484898734
1515,119.453933489031
1514,118.722592808969
1513,117.266374389099
1512,115.654000631336
1511,114.043123233858
1510,113.204073654755
1509,114.785827495536
1508,116.526641205104
1507,118.256327614803
1506,118.47561526575
1505,117.358510453884
1504,116.241036138393
1503,115.122399031745
1502,114.038075320308
1501,112.964821644674
1500,111.891071681809
1499,110.686027605416
1498,108.966967639888
1497,107.177934056328
1496,105.38843062463
1495,103.486145977672
1494,101.440230319985
1493,99.4291238043847
1492,97.4371169538193
1491,95.9037146227359
1490,94.6003725593441
1489,93.2972055086758
1488,92.6231270427666
1487,95.6084684430014
1486,99.287741920453
1485,102.966343975666
1484,107.312530532217
1483,113.370933254141
1482,119.68750771765
1481,125.954333086769
1480,127.416639362897
1479,125.523214776392
1478,123.631320901865
1477,121.809710641871
1476,121.057502034138
1475,120.582545296523
1474,120.105958166977
1473,119.357301952548
1472,117.541439012755
1471,115.653224426868
1470,113.765306911677
1469,112.77196107568
1468,113.132999195374
1467,113.459686452392
1466,113.812038116219
1465,115.505629109612
1464,117.903492486578
1463,120.183794474407
1462,122.192723325973
1461,122.162057616549
1460,121.658980426493
1459,121.137368982639
1458,121.274995765849
1457,123.410740716194
1456,125.572198183574
1455,127.730350122524
1454,129.184305842329
1453,129.60824933725
1452,130.026045306277
1451,130.431262488929
1450,129.076997974478
1449,126.935707700293
1448,124.798046512366
1447,122.706226033443
1446,121.150016566
1445,119.692430351772
1444,118.223208180439
1443,116.863372531522
1442,115.796509254056
1441,114.747742357109
1440,113.696789407811
1439,112.536214148589
1438,111.226051704351
1437,109.921430328071
1436,108.615148841476
1435,107.231828905589
1434,105.820482571137
1433,104.40928700208
1432,103.034873435818
1431,102.051936748904
1430,101.172497349993
1429,100.284592024923
1428,100.435326497281
1427,104.783415157344
1426,109.377234016395
1425,113.960461376188
1424,116.670503467981
1423,115.852289263057
1422,114.974114271778
1421,114.094886716661
1420,113.069790579678
1419,111.926970120134
1418,110.784173242541
1417,109.490760941189
1416,105.635103425277
1415,100.806938318085
1414,95.8687006617085
1413,92.0249751487953
1412,94.4133464946422
1411,97.8032311623075
1410,101.178258123487
1409,103.558954105378
1408,102.799292814697
1407,101.837171207671
1406,100.868967344658
1405,102.945544751581
1404,109.501944228712
1403,116.102829963669
1402,122.678756179578
1401,124.545249857719
1400,122.89595226715
1399,121.26248942376
1398,119.632152535288
1397,118.042944671902
1396,116.469170920364
1395,114.895921680533
1394,113.353477451352
1393,112.01117444286
1392,110.707980861714
1391,109.404553048821
1390,109.124464804751
1389,112.353997823076
1388,115.903517827799
1387,119.445519297771
1386,121.714731027789
1385,121.564652504591
1384,121.343236134884
1383,121.121739247228
1382,122.160537512264
1381,124.607885406637
1380,126.930251761227
1379,129.085325334738
1378,128.838310614314
1377,127.232103304979
1376,125.626264129653
1375,124.036555070251
1374,122.667877731064
1373,121.365096900663
1372,120.062032393574
1371,118.708915672825
1370,117.045098581007
1369,115.332876130106
1368,113.621168985342
1367,112.790288258427
1366,114.867912748011
1365,117.142110483376
1364,119.408213686298
1363,120.07233785299
1362,117.806454822085
1361,115.452828545913
1360,113.100800274325
1359,110.998489580082
1358,109.180010782034
1357,107.362998665545
1356,105.559235021092
1355,104.968277167401
1354,105.120322786833
1353,105.22500154518
1352,105.284723219127
1351,103.711315894396
1350,101.471661888373
1349,99.2327441258353
1348,97.1068464390697
1347,95.80041330843
1346,94.7071841420947
1345,93.6133696380946
1344,93.0889230595888
1343,95.6052192778663
1342,98.5229553551046
1341,101.29863536859
1340,103.44912501201
1339,103.18270224878
1338,102.687597078234
1337,102.214340815916
1336,101.307334906723
1335,99.4476424018735
1334,97.5606192726345
1333,95.6963072520928
1332,95.45854122529
1331,97.5561294310543
1330,99.562761795489
1329,101.670858324127
1328,103.449062734077
1327,104.840103533408
1326,106.316079631252
1325,107.763916533334
1324,107.222911241315
1323,105.511706665339
1322,103.81607622291
1321,102.107614862237
1320,100.422642681197
1319,98.7614220894424
1318,97.0873831565135
1317,95.4493565836081
1316,94.2157139103846
1315,93.0929554677053
1314,91.9694847699734
1313,91.5191648245264
1312,96.1456078632507
1311,102.028103435398
1310,107.897445043713
1309,112.60938741345
1308,112.406543016593
1307,111.470929427239
1306,110.523487772262
1305,109.290748364723
1304,107.019691376156
1303,104.687133265764
1302,102.35841688163
1301,100.255233279411
1300,98.8549225165439
1299,97.5020361298227
1298,96.14640032771
1297,94.7388410954575
1296,93.2364733082621
1295,91.7322327715491
1294,90.2208734636902
1293,90.1473717299114
1292,92.1701373829652
1291,94.2014708512729
1290,96.3361987717417
1289,96.3023255478376
1288,93.7527157887574
1287,91.2039922900923
1286,88.6157210820308
1285,87.211483966846
1284,86.8422574508949
1283,86.4705913433881
1282,86.1329544356698
1281,86.396828306514
1280,87.021245144835
1279,87.6427718914853
1278,88.3043954982666
1277,88.0663289184024
1276,87.3025380624135
1275,86.5380278364757
1274,85.790301397419
1273,85.8019736766796
1272,86.1732407245199
1271,86.4833531604522
1270,86.7980873426176
1269,87.3743190838677
1268,88.1250620485295
1267,88.8724961381885
1266,89.5033625691382
1265,89.4180653481981
1264,89.0915208819222
1263,88.7967357932658
1262,88.2782774381781
1261,85.2990845223093
1260,81.664221501762
1259,78.0333411915193
1258,74.5607694197076
1257,72.8393886657659
1256,71.6050030994543
1255,70.3675098742423
1254,69.3347436298478
1253,70.0494771728555
1252,71.1612833128891
1251,72.3538682696149
1250,73.3089375740587
1249,72.6007290865367
1248,71.6004373110457
1247,70.5997819794957
1246,69.5848840736308
1245,68.4720406731276
1244,67.3462914950828
1243,66.2198660124736
1242,65.2021634557436
1241,64.841607904314
1240,64.5834065497929
1239,64.3243846880039
1238,63.9458607828328
1237,62.8478404171451
1236,61.6338057170364
1235,60.4194080815999
1234,59.2404095001222
1233,58.2584857269767
1232,57.3026466567296
1231,56.3459825309645
1230,55.3781050627154
1229,54.3538802560577
1228,53.3205898457453
1227,52.2864302849204
1226,51.9066711280671
1225,54.7110253663361
1224,57.8393724869256
1223,60.9721032972874
1222,62.8886145374678
1221,58.8481368964102
1220,54.019752060721
1219,49.1958466829389
1218,45.385224494902
1217,46.9557393632227
1216,49.3144221582624
1215,51.6676734278588
1214,53.5692820390842
1213,52.8274658968495
1212,51.654935244125
1211,50.4818043356788
1210,49.5553989751032
1209,49.9597085509344
1208,50.5213236853121
1207,51.0823303915217
1206,51.6819944437487
1205,52.5039759109813
1204,53.3622077777731
1203,54.2220501149142
1202,54.9251627145015
1201,54.6178842899246
1200,54.1305754244199
1199,53.6413234230347
1198,53.05825529704
1197,51.8050889993943
1196,50.4182181798175
1195,49.0311429437117
1194,47.7583123335167
1193,47.4524092077953
1192,47.363574688021
1191,47.2732408095015
1190,47.1307036058501
1189,46.4815315942546
1188,45.7018787255654
1187,44.9214478792822
1186,44.2557562597343
1185,44.9748796069423
1184,46.0895804577942
1183,47.1940400047482
1182,48.1862182775538
1181,47.6428962064999
1180,46.5891927810082
1179,45.5345461717976
1178,44.5818698869575
1177,45.5977153108322
1176,47.2538813323443
1175,48.9016307197257
1174,50.6150884630962
1173,50.7604520080616
1172,50.0418949391935
1171,49.3215498486434
1170,48.5984234298282
1169,47.7857538311333
1168,46.9147332948594
1167,46.0417623009592
1166,45.1686419638113
1165,44.6755167528061
1164,44.4694197509675
1163,44.2617801654227
1162,44.0525992376824
1161,43.7804465239747
1160,43.4134586683439
1159,43.0429427464652
1158,42.7052224296707
1157,41.8619151269688
1156,40.3168554417153
1155,38.7675181359699
1154,37.2182902257874
1153,37.8377881820865
1152,42.0622746447483
1151,46.3393548345204
1150,50.4232840172049
1149,53.1412100138013
1148,52.6513979816798
1147,51.9996536071384
1146,51.3461498740004
1145,50.6266723406711
1144,49.713576523231
1143,48.7861235084733
1142,47.839492444286
1141,47.4644643433938
1140,49.7367010275253
1139,52.3265068847093
1138,54.9096493404079
1137,57.0270341710058
1136,56.5335941544565
1135,55.6107682585263
1134,54.6866281877698
1133,53.8125007735724
1132,53.252392881002
1131,52.7708899718446
1130,52.2885629376487
1129,51.9130345448463
1128,52.8566259712077
1127,54.2371532994272
1126,55.7123084083802
1125,57.147768426386
1124,57.4365128614283
1123,57.1348394214927
1122,56.8324166138577
1121,56.5705840752213
1120,56.3810751594546
1119,56.2443753500966
1118,56.104966666282
1117,55.9177287922659
1116,55.4735663779471
1115,54.7552898956655
1114,54.033591827203
1113,53.3093765483261
1112,52.9805813276995
1111,53.3815265614121
1110,53.8589882785249
1109,54.3374430050922
1108,55.1332594821563
1107,57.0027489134672
1106,59.0512626432931
1105,61.1056280320798
1104,63.8057384125758
1103,68.8203754220075
1102,74.0802132293358
1101,79.552572251962
1100,84.2042930654953
1099,83.4506146106184
1098,81.6875317529616
1097,79.9176131141176
1096,78.1963989700001
1095,77.0830608311126
1094,76.1631384197777
1093,75.2635272378389
1092,74.3559142806443
1091,73.1988808653184
1090,71.9222132247916
1089,70.6545325868194
1088,69.3853143578584
1087,67.5656996790186
1086,65.2720584965768
1085,62.9537587808982
1084,60.6621638534418
1083,58.2446416068266
1082,55.5729606756733
1081,52.8973325595347
1080,50.2600081649115
1079,47.2960117486849
1078,43.3259103666142
1077,39.3776222333803
1076,35.431077275055
1075,31.869413064946
1074,30.6359500128906
1073,29.6999039690861
1072,28.7637408372785
1071,27.8905047939068
1070,27.371776709124
1069,26.947372350866
1068,26.5596038045677
1067,26.1085477805076
1066,24.8056616631283
1065,23.1008965605687
1064,21.401810402591
1063,19.7028580458222
1062,18.4186048942136
1061,17.4831234432244
1060,16.5462921032663
1059,15.6288199760749
1058,14.2801036571883
1057,12.2292806366292
1056,10.1530725705452
1055,8.09644169107453
1054,6.5918290279364
1053,6.91894184710674
1052,7.32642820593383
1051,7.73152848429475
1050,8.25759641618025
1049,9.68338503606856
1048,11.380840252573
1047,12.9702347246501
1046,14.4705745832471
1045,14.4430287959778
1044,13.7731158713728
1043,13.1033569707041
1042,12.4346283435036
1041,12.1596384757796
1040,12.2374104243903
1039,12.2582274572266
1038,12.2767255675066
1037,11.8903465779268
1036,10.8377358638984
1035,9.79399083885776
1034,8.7313012041822
1033,7.74351437038744
1032,6.99756783375792
1031,6.27216200600608
1030,5.5761414574662
1029,5.07192590139013
1028,6.20992846699095
1027,7.64898805845002
1026,9.08516327643803
1025,10.5919941651645
1024,11.4173182400984
1023,12.0056896754446
1022,12.5930589693147
1021,13.1794282946485
1020,13.3467488704314
1019,13.1159685471075
1018,12.8823224372063
1017,12.6458159115832
1016,12.2574385184973
1015,11.4297303048632
1014,10.5872451411721
1013,9.74306810294237
1012,9.12942254047223
1011,9.58014278859375
1010,10.1697687593811
1009,10.7521640357866
1008,11.2459254526937
1007,10.6378490275902
1006,9.65735276326622
1005,8.67640853980957
1004,7.69318552959184
1003,6.38308805654586
1002,4.81624708729279
1001,3.25088211939837
1000,1.68441984396177
999,0.0741154787698028
998,-1.61185783900239
997,-3.29902334920855
996,-4.98576292798169
995,-6.30890188338347
994,-6.17646635049792
993,-5.8803398011489
992,-5.59049137734479
991,-5.38416285369628
990,-5.31367915706531
989,-5.30518945417619
988,-5.29404294477407
987,-5.28045453530614
986,-5.95631440336167
985,-7.18891810058618
984,-8.42185040789743
983,-9.65510886928253
982,-10.2205935812483
981,-9.42581409334946
980,-8.58973140778027
979,-7.76059514173481
978,-7.28836130991849
977,-8.54650124815397
976,-10.0617982209796
975,-11.5769453229711
974,-13.025381652199
973,-12.6525880310895
972,-11.5429861602255
971,-10.43558525939
970,-9.33038333198306
969,-9.0138558911754
968,-9.53723675341727
967,-10.100676391122
966,-10.6277080189023
965,-10.247095513777
964,-7.04018194505978
963,-3.67011831544223
962,-0.314021989836723
961,2.66433876131931
960,2.38582638487058
959,1.43344843234272
958,0.480277367911332
957,-0.482515866047842
956,-2.01761051895761
955,-3.91136249060226
954,-5.81291725387782
953,-7.71376515034111
952,-8.33484112024226
951,-6.52745736518305
950,-4.77526321817743
949,-2.90605539834874
948,-1.25205075599826
947,-0.843790096961582
946,-0.622088482303927
945,-0.467107817998458
944,-0.25294334126072
943,-0.160482614257155
942,-0.187231611492255
941,-0.158557083572321
940,-0.133335870990944
939,-0.171149590817452
938,-0.296036609535008
937,-0.476549898331788
936,-0.604675475378207
935,-1.19400091494625
934,-3.74727878573311
933,-6.54162326813133
932,-9.33059321169568
931,-12.0252824556863
930,-13.4779729400208
929,-14.4204419670315
928,-15.3893682057278
927,-16.3341745243353
926,-16.2570507720895
925,-14.9765454370417
924,-13.5864591795605
923,-12.194233228124
922,-10.6595647932277
921,-7.92770580741896
920,-5.08323057869792
919,-2.39859801700864
918,0.299682763118308
917,0.644771202767988
916,0.0471630257717521
915,-0.549721993355608
914,-1.10615314196748
913,-2.35944676441313
912,-4.53354435722477
911,-6.7256377923059
910,-8.9160857782486
909,-11.0616147907185
908,-13.0962462937983
907,-15.1147732030137
906,-17.12102259515
905,-19.0617820754806
904,-18.912494490836
903,-17.8226008863945
902,-16.8331144142492
901,-15.8476803329893
900,-14.942375091926
899,-14.322666931146
898,-13.7883483839333
897,-13.2538612735021
896,-12.5916231683588
895,-11.6625508519006
894,-10.782782035147
893,-9.81238821362284
892,-8.87212265027275
891,-9.32524442581853
890,-10.4809305270558
889,-11.6366586742422
888,-12.7720271518363
887,-12.9595704746378
886,-11.1762980029217
885,-9.33568220287109
884,-7.37392193652579
883,-5.49199740748395
882,-4.36618447522166
881,-3.38944858573694
880,-2.32385365087243
879,-1.26798287429748
878,-1.89327909303658
877,-3.8541336137491
876,-5.81375686413987
875,-7.77967656048197
874,-9.59687282490537
873,-10.9211764212141
872,-12.2076378520333
871,-13.4939789824676
870,-14.7697322908197
869,-16.15735439535
868,-17.6012893981307
867,-19.0450050128444
866,-20.4884985829174
865,-22.1521165315384
864,-24.2063338934056
863,-26.2559449022521
862,-28.3040140380838
861,-29.5263081029311
860,-24.5915678548637
859,-18.141738778484
858,-11.7189145163129
857,-5.61514851026339
856,-2.74811581738768
855,-2.41330845121151
854,-2.07910088738879
853,-1.67009046658669
852,-1.64219455621836
851,-2.89261899328968
850,-4.22965297205597
849,-5.56649566331248
848,-6.83722273558215
847,-6.22277787222743
846,-4.63262781838247
845,-3.04882728043138
844,-1.58730753228169
843,0.207754122150056
842,2.63361735618031
841,5.06080161370937
840,7.47482467354049
839,9.61032288387447
838,8.80900141205771
837,7.19548573640737
836,5.57603635586184
835,3.9572517436407
834,2.59670055978501
833,1.52640118410427
832,0.456511444538703
831,-0.61296559082734
830,-1.68965548967938
829,-2.78689818055914
828,-3.89123162870543
827,-5.0193845115091
826,-6.14897947598117
825,-7.47250374268702
824,-8.92473265366709
823,-10.3766374374758
822,-11.8282153233386
821,-13.3739583506931
820,-15.2573534143652
819,-17.1698316989675
818,-19.0811928373481
817,-20.9107487232338
816,-18.7867887996524
815,-14.6404013909808
814,-10.7019542011519
813,-6.76635073276716
812,-4.18648466023236
811,-4.7364910917114
810,-5.41184668539036
809,-6.08807971306637
808,-6.72802681236412
807,-6.75436543057486
806,-6.5636373420138
805,-6.37325981658977
804,-6.18322899475003
803,-4.70650636763678
802,-0.716947458087857
801,3.33341342955352
800,7.38153644425642
799,11.0569479536774
798,10.0549461957337
797,7.64777571166302
796,5.24328477815727
795,2.84147224567048
794,0.701550370723992
793,-1.00258036189945
792,-2.69917169672389
791,-4.3950570330868
790,-6.09372675395713
789,-7.82748754948949
788,-9.56987384760926
787,-11.3115342432944
786,-13.0524657966041
785,-11.7227304991132
784,-5.88414110118568
783,-0.0353603414789149
782,5.78722323492972
781,10.9937525721734
780,11.0556268741933
779,9.92992643110747
778,8.80380547041661
777,7.67726778362354
776,6.76509071301285
775,6.13452947620481
774,5.50399626471455
773,4.87220569688083
772,4.38171407517541
771,4.9847103016042
770,5.81427285087696
769,6.64132987062071
768,7.46588545280528
767,7.34120444750629
766,6.07525498302376
765,4.80736450591326
764,3.53931698340475
763,2.52569537517656
762,3.30812754391725
761,4.43435177524402
760,5.55891581949394
759,6.57451761851302
758,6.76127601164082
757,5.8408776927501
756,4.91005567336101
755,3.97840298377129
754,3.03155085192478
753,1.95408370802855
752,0.845650763369842
751,-0.262752691132386
750,-1.3711235009562
749,-1.7974719491279
748,-1.26354004039456
747,-0.807455853055513
746,-0.349073608675997
745,0.0908654732628463
744,-0.805885148795625
743,-2.10115779649178
742,-3.39593836961595
741,-4.69022390921564
740,-5.33803829453963
739,-4.8410200088495
738,-4.32482616916503
737,-3.89721473998003
736,-3.44905270435763
735,-2.4800665144619
734,-1.34650789029338
733,-0.213827102951341
732,0.917980864576737
731,3.35406169353999
730,8.48891824339766
729,13.728014652313
728,19.2216550862334
727,24.5930967632304
726,26.126871154463
725,25.784740061002
724,25.443076671001
723,25.0449814950697
722,24.7142040085149
721,24.6948672708139
720,24.6975970825684
719,24.697475624622
718,24.6838989356479
717,23.6302628586006
716,21.8945932522629
715,20.159628824217
714,18.4328059470272
713,17.1370037017134
712,18.1024570049535
711,19.389136130126
710,20.5580763393119
709,21.7244224869371
708,22.2296446085434
707,21.8087468506112
706,21.3857133031591
705,20.9074443467526
704,20.691315056959
703,23.3195314064762
702,26.6928503029265
701,30.0615694359227
700,33.2355536010291
699,34.8210128704979
698,33.1937752375763
697,31.4529166769573
696,29.7128589744324
695,27.9855420822475
694,26.8516240800303
693,26.0124565641658
692,25.1724112348894
691,24.2915668223971
690,23.9778556573082
689,25.9165902612146
688,28.0715914662948
687,30.2218456057005
686,32.2203951854825
685,32.8578075836071
684,32.4213968689473
683,31.9837448314826
682,31.4900536379219
681,31.0805093000909
680,31.3924178178129
679,31.8443540787561
678,32.2074472961944
677,32.568429546642
676,32.4453394310496
675,31.3153341201805
674,30.1372107303271
673,28.9597376856679
672,27.7941233162788
671,26.2100342017833
670,24.4602210495944
669,22.7198155613455
668,20.9804588083695
667,19.4295496834274
666,18.6420994755498
665,17.97000731192
664,17.2993439583133
663,16.5835951780042
662,17.6276773315395
661,20.5620834414641
660,23.3206830507146
659,26.0787576952018
658,28.7633589017879
657,28.95708948679
656,28.5420885741621
655,28.1876349229923
654,27.8354901571247
653,28.1425662938581
652,30.1509354650253
651,32.3662348271723
650,34.4269027198846
649,36.4713042877085
648,37.5589175243923
647,37.8475924677743
646,38.1321562587043
645,38.4972725710719
644,38.9474405967509
643,40.5981773206657
642,42.5980642522156
641,44.4521501369647
640,46.3037316985091
639,47.5337067636648
638,47.3190965917154
637,47.0761066932874
636,46.8983654606741
635,46.6587709647261
634,46.6305108499063
633,46.7852291291998
632,46.8614343611043
631,46.936930561889
630,46.8092260191933
629,45.4977818679797
628,44.0343616165378
627,42.551828519186
626,41.070227046612
625,39.9151087615276
624,39.2005599687863
623,38.4916969312213
622,37.8307629149585
621,37.1975516288959
620,39.143903115874
619,42.2438866858825
618,45.3411776397224
617,48.6257339860424
616,51.0350264456431
615,49.851304569353
614,48.1993945182675
613,46.5481667474194
612,44.9118427439516
611,43.1864189447958
610,41.3385019941326
609,39.4908280703291
608,37.6445236480363
607,35.8468770699142
606,35.2313190079575
605,35.2101646267449
604,35.1897369889394
603,35.1700414642264
602,35.0418632520687
601,34.1712259885168
600,33.2129164372601
599,32.2168168201839
598,31.2211195482357
597,33.198692144111
596,41.3348421951275
595,49.6054124787066
594,57.8629986711441
593,66.4162911249435
592,70.0798805174691
591,70.8740180490895
590,71.6675006145847
589,72.4603335380645
588,73.0948808123467
587,72.2068168148309
586,70.9709323553975
585,69.736400790999
584,68.5032256627035
583,67.3577710047506
582,66.4705634778998
581,65.603764856071
580,64.7829488669407
579,63.9186982663317
578,63.1152509572026
577,62.3729453551541
576,61.6325592740593
575,60.8940989761607
574,60.1420020960265
573,59.1356555894286
572,58.032621223493
571,56.9307557313601
570,55.8300626004485
569,54.6648783319809
568,53.1646458409719
567,51.6232856455898
566,50.0832833551214
565,48.5446418514508
564,47.4119171870443
563,47.0348902098379
562,46.680527270464
561,46.3281433373216
560,45.9872938806503
559,46.5847985930985
558,47.8353928500803
557,49.0847163837682
556,50.210063056674
555,51.4676160361166
554,52.8561569528203
553,54.2874727583785
552,55.7195696266014
551,57.1524566087214
550,58.2519648460563
549,57.9193866834834
548,57.440482813864
547,56.9602199371429
546,56.4786042226203
545,56.1801554051867
544,56.1814696235257
543,56.1125356040499
542,56.1223363964898
541,56.1504555927431
540,59.4852048724898
539,65.1162557235714
538,70.7482555614809
537,76.3812259887163
536,81.4072283997423
535,81.8129078493626
534,80.6888123172106
533,79.565038078527
532,78.4415890365785
531,77.247656318941
530,75.756866254929
529,74.2090179221049
528,72.6838220658548
527,71.1599303790031
526,70.3584089143895
525,70.9841920666234
524,71.5544640752827
523,72.2273719013361
522,72.9002357818261
521,71.8380641168581
520,69.2335854579532
519,66.6514384465874
518,64.05434188876
517,61.5062545808345
516,60.0983911755264
515,59.146950537931
514,58.1536675038234
513,57.2027541802252
512,56.5332133848468
511,57.7488581236323
510,59.4623994520219
509,61.1663274426974
508,62.860669832851
507,64.0586421206083
506,63.6657670989702
505,63.238603992154
504,62.8112708518959
503,62.3220234554874
502,62.5341464304234
501,63.7871223525767
500,64.9302582909863
499,66.1932953688554
498,67.4462160936716
497,66.9251275770116
496,65.1189771733907
495,63.3140725955924
494,61.4995879758214
493,59.7932683057627
492,59.9373039808555
491,60.7319146219764
490,61.6356497655246
489,62.5373809558908
488,63.0108810091839
487,60.8351417631484
486,58.0834488862076
485,55.3602427615246
484,52.6169038328079
483,50.3536374446528
482,49.8057081205322
481,49.4708479092832
480,49.1371418541575
479,48.7397524870304
478,48.8766779012188
477,49.9420867997075
476,50.9251545350287
475,51.9131122483708
474,53.0245839880844
473,52.9383743015893
472,51.509376967194
471,50.1072190601951
470,48.7065782411068
469,47.28978839081
468,46.441817460062
467,46.0055662007763
466,45.5716810696438
465,45.0790824386146
464,44.6543139430114
463,44.2925752007498
462,43.8893222947025
461,43.4881962984455
460,43.1538099457621
459,43.1085551696951
458,44.916090816463
457,47.0792484085219
456,49.4082491751434
455,51.739968417479
454,53.4046390335465
453,53.0251987707914
452,52.4883596862176
451,51.9527372854846
450,51.3607823101117
449,50.8839672668685
448,50.7786369482984
447,50.6906723941125
446,50.5311368874381
445,50.3740335560742
444,50.2501523889224
443,50.2585633182409
442,50.2715340678337
441,50.2103251225925
440,50.1526402951368
439,49.8636248616529
438,49.2716384867539
437,48.6264826784169
436,47.9834558474874
435,47.3548603261935
434,48.1860803659229
433,49.8866412833612
432,51.4504871707469
431,53.0177351944762
430,54.5241801720733
429,54.488354478678
428,53.7643502239025
427,52.9908987874529
426,52.2186166278056
425,51.5473931596853
424,52.155735523948
423,53.0978684684541
422,53.929614690657
421,54.7631801002803
420,56.2838063889588
419,62.7263245188547
418,70.0177888456216
417,76.9669405144997
416,83.9215624332153
415,89.5370232971116
414,89.4515943647341
413,88.7847158134367
412,88.1200082354825
411,87.4031221904999
410,86.7103029828913
409,86.0818487491154
408,85.4596551634495
407,84.840001776788
406,84.2809309174896
405,83.8726628516999
404,83.6924443741379
403,83.522016935578
402,83.3546175306541
401,83.1902552370179
400,82.6269358662758
399,81.4214728791033
398,80.2072926020165
397,78.9616501158339
396,77.7180791159216
395,77.0021772358544
394,76.8823726331107
393,76.7661210233387
392,76.6534338229682
391,76.6200376125543
390,76.3059737336733
389,75.7065855088294
388,75.1085132599645
387,74.5117599878698
386,73.9188221911459
385,73.5961683973375
384,73.4521652234381
383,73.3097846390712
382,73.1690311121677
381,73.0929043425565
380,72.6243247755892
379,71.9022572896217
378,71.1804870652569
377,70.4590172919329
376,69.9098609405135
375,73.2944511657874
374,78.3112373688634
373,83.3251277127734
372,88.336132392176
371,93.099535123448
370,93.1364712989978
369,91.4010388985184
368,89.6676136757042
367,87.9216639846223
366,86.2637176284416
365,85.5148751060987
364,85.0113096140926
363,84.5104265351316
362,84.0122316355953
361,83.4849138971087
360,82.6602827232606
359,81.7639671378223
358,80.8698019649129
357,79.9777901686557
356,79.2397629779387
355,79.8066634176653
354,80.672102514874
353,81.5406572466861
352,82.4123391324297
351,83.0299404804479
350,81.6411820808837
349,79.8308160918761
348,78.0232219841115
347,76.2184013255612
346,74.6451405626701
345,74.8157620249595
344,75.3148752216851
343,75.7209860086114
342,76.1303615210576
341,76.6081486814365
340,77.4136164323393
339,78.2702935105074
338,79.1346024781765
337,80.0065825836119
336,80.8704075231936
335,81.6674884446005
334,82.4626762173402
333,83.2653895521168
332,84.0756666158448
331,84.4840624606741
330,83.0677359593725
329,81.4379329176751
328,79.7925260834429
327,78.1498223087855
326,76.2955863266143
325,73.1199940148327
324,69.7420567774126
323,66.3700074142914
322,63.0038429398453
321,59.9873586071051
320,58.8517047865553
319,58.0014515050334
318,57.1534195647397
317,56.3076113770614
316,55.4535649050038
315,54.5464785017716
314,53.6334065925971
313,52.7223814993143
312,51.8134050618126
311,51.2212550531954
310,52.2455757414382
309,53.5007717002017
308,54.7589591633726
307,56.0201491753394
306,57.2803039747803
305,58.3956538988449
304,59.5105330146984
303,60.7552993645209
302,62.0026916681662
301,63.1669035882685
300,63.7585943556334
299,64.2461311151077
298,64.7359682352369
297,65.228111711378
296,65.780744641482
295,66.7219400120571
294,67.7368924177037
293,68.7548790819629
292,69.656690298463
291,70.5414831538956
290,71.3648208846086
289,72.1463237382176
288,72.9306869210135
287,73.717918856225
286,74.6419180848609
285,76.8155083181428
284,79.2964610806824
283,81.7806981937172
282,84.0920680254708
281,86.1876485388936
280,85.3884332173276
279,83.6011982406538
278,81.8163441194448
277,80.0338712658276
276,78.4088960288748
275,79.0121873031525
274,80.2131182415234
273,81.4158714774087
272,82.752088091434
271,84.0270445517033
270,83.7285489053854
269,82.7507948177833
268,81.7748789375057
267,80.7581985121311
266,79.7509355937976
265,79.212875400518
264,78.9220709013458
263,78.6340436318066
262,78.3487976923695
261,78.0699872869703
260,77.9398933508009
259,77.9489617782087
258,78.04495051127
257,78.1446060566839
256,78.2480548482025
255,78.4085924158378
254,78.5286947894986
253,78.6527305191393
252,78.8687885082446
251,79.089105077875
250,77.5299346407226
249,73.987139451784
248,70.4475039466846
247,66.8518111889153
246,63.259121075034
245,62.3010619089834
244,65.5388950339173
243,68.6272909253104
242,71.7212127022733
241,75.0272693542935
240,76.6983110978309
239,74.7954778133925
238,72.770190220454
237,70.7479837202069
236,68.7302351598435
235,67.0708478463894
234,66.4774548410328
233,65.8993086403006
232,65.3238363478089
231,64.8099712347367
230,64.4734668637726
229,64.7737086343516
228,65.1591596299845
227,65.6470991436057
226,66.1404828452124
225,66.5994340549286
224,66.7356806039192
223,66.8355806620465
222,67.0251705981544
221,67.2187829550916
220,67.1618226583661
219,65.0058539322366
218,62.2507717906137
217,59.4973694561272
216,56.7734558092797
215,54.0281360513572
214,50.6380761837247
213,46.9758078346798
212,43.3803467924367
211,39.7884061558322
210,36.1690758173107
209,35.296999729361
208,36.0462782998492
207,36.8021219170832
206,37.6751155598836
205,38.4444556223778
204,38.359271295818
203,37.3222390559029
202,36.2870733009461
201,35.2192336845234
200,34.1556114239222
199,34.0919819068923
198,35.7534397382697
197,37.3104988560454
196,38.8703574203924
195,40.575453387405
194,41.9137098758722
193,42.5846282573524
192,43.3301596603984
191,43.9757100549756
190,44.6267266906123
189,45.3887017346517
188,46.1523110611487
187,46.8148798656093
186,47.4831974606574
185,48.2644509325676
184,48.7913888514936
183,47.7848092932604
182,46.4459357841767
181,45.0834499037876
180,43.7227681929825
179,42.4410204964971
178,42.1877972643339
177,42.3859324117185
176,42.6752423111693
175,42.8803422943044
174,43.0907467054968
173,43.8959080665192
172,44.9679748028977
171,46.036918014824
170,47.2250668928366
169,48.2876765546922
168,49.194288866068
167,49.983660142229
166,50.6702815762257
165,51.3639957084871
164,52.1729360873116
163,52.6216164811485
162,52.3785562392509
161,52.1742797565588
160,51.9027631462258
159,51.6329448454155
158,51.5063395516759
157,52.1802340134856
156,53.0792701288703
155,53.8702807306574
154,54.6645263679586
153,55.426998561757
152,54.6019946445403
151,53.3605814544899
150,52.1221642852018
149,50.8867422096972
148,49.6825264968434
147,48.3675091496043
146,47.0083915512405
145,45.6518923884489
144,44.2980093000315
143,42.9718332083733
142,42.0263973858783
141,41.5639089614349
140,41.1042151888403
139,40.6473158504737
138,40.2539715094873
137,39.0453053402202
136,35.9350705176043
135,32.75161323976
134,29.5710053393897
133,26.3442237809189
132,23.2764768387122
131,20.7944833098311
130,18.3922353482068
129,15.9929213200133
128,13.5780040860899
127,11.0326074184487
126,6.2569808492934
125,0.806989045729176
124,-4.64216982226418
123,-10.0905165272113
122,-15.505221920874
121,-16.6333405300074
120,-14.5213490867944
119,-12.2330275960066
118,-10.0897686039837
117,-7.93105995951156
116,-6.73670211061811
115,-7.19373713618315
114,-7.66590290742289
113,-8.13611040408609
112,-8.60436301933027
111,-8.87962290480827
110,-8.41947644298435
109,-7.88104649979697
108,-7.24995431780887
107,-6.72054717586846
106,-6.32534523599224
105,-7.10182625523739
104,-8.18300748453501
103,-9.26254752733808
102,-10.3404504166359
101,-12.2284913535842
100,-14.1135738513038
