Unnamed: 0,Unnamed: 1
SGH Nylon,
,
,
Raman Shift / cm-1,INT
3200,-73.0525112577023
3199,-71.8878167454652
3198,-72.9634087336107
3197,-43.7007567641552
3196,9.17520680547036
3195,57.1558281532726
3194,113.182238906714
3193,204.67433056126
3192,205.860329573508
3191,77.3254656715319
3190,35.3006211034394
3189,37.7430589564537
3188,40.8974244453594
3187,56.5931077512371
3186,103.409553237838
3185,111.2212660266
3184,85.0225222516714
3183,110.608630192325
3182,148.762880309761
3181,143.15910068927
3180,121.38086415154
3179,79.931876262535
3178,16.9770252345444
3177,-58.768153758875
3176,-74.5553701580734
3175,-71.2628453525444
3174,-69.9062415699467
3173,-68.8355401756218
3172,-67.8641005149498
3171,-20.9378251817235
3170,57.7051256575069
3169,78.4096249057857
3168,85.5735746094994
3167,120.544852149137
3166,147.888945832167
3165,150.192250129474
3164,152.717491662427
3163,154.97459099896
3162,134.129962931821
3161,90.6673566075846
3160,-37.1492984236229
3159,-139.035519030657
3158,-138.290013378764
3157,-102.979299277692
3156,-31.8924202553674
3155,15.3615745339478
3154,44.6287664680909
3153,26.1495465203289
3152,2.94670201004664
3151,4.01268418084135
3150,5.51670803050034
3149,4.45063919681509
3148,94.9949955563763
3147,250.707028806785
3146,313.507146051239
3145,392.8366256786
3144,776.245016128263
3143,990.292182355594
3142,600.291108542195
3141,333.557752516018
3140,300.495109438902
3139,200.56856918689
3138,78.1901037430023
3137,203.315360650522
3136,352.81251698616
3135,222.93402879222
3134,102.295464642003
3133,122.905310497719
3132,152.043151563284
3131,182.42090818863
3130,177.239577544513
3129,149.621145361217
3128,121.275289942523
3127,97.1484101394236
3126,96.0444347526916
3125,92.1766639444403
3124,68.901296477891
3123,73.4026793237566
3122,125.139453982274
3121,122.046676755637
3120,72.8411207189682
3119,94.1816232601657
3118,135.666312585983
3117,83.3967630241204
3116,28.0387429369997
3115,67.3285455593617
3114,104.222752635045
3113,107.753654528556
3112,107.838871101771
3111,105.081883617321
3110,94.2481002495244
3109,77.8408010957896
3108,81.2059956835021
3107,83.9194891715768
3106,13.3277629316479
3105,-60.4048212598947
3104,-86.6294103893573
3103,-101.301570372791
3102,-100.114343051847
3101,-89.6119425407295
3100,-65.4183414617941
3099,-17.1100491548366
3098,51.8650891639619
3097,91.1988412568351
3096,113.307228274128
3095,118.303733131043
3094,125.075663842565
3093,181.434515066372
3092,242.840731618782
3091,287.511655882467
3090,299.744011487746
3089,238.662045677785
3088,174.784593680015
3087,111.875488095716
3086,115.580030921251
3085,177.700430947105
3084,199.031022828686
3083,199.163670777116
3082,214.653184949302
3081,231.522669656934
3080,218.080234462788
3079,197.977580429754
3078,178.550256110861
3077,163.42499067721
3076,161.002849060524
3075,147.488240720694
3074,109.123506680243
3073,86.7289776728149
3072,86.5608985344041
3071,96.9160989241008
3070,116.624667995251
3069,136.636210349362
3068,155.09255847746
3067,147.47808043416
3066,129.124260521631
3065,111.173679305437
3064,92.9265190256465
3063,74.6030594698742
3062,64.7173102606802
3061,95.0948102763436
3060,123.091660451124
3059,125.408001572804
3058,125.473820534994
3057,124.636706364433
3056,130.91540874376
3055,149.984428451295
3054,184.119836065291
3053,235.203603176048
3052,240.406195512861
3051,205.055856171433
3050,202.644753829277
3049,219.779301200382
3048,224.953540219889
3047,223.953693261188
3046,210.837463977985
3045,192.398356716942
3044,162.174495999055
3043,132.439700512884
3042,127.654789660302
3041,125.487403358174
3040,111.370025013003
3039,98.7040785042574
3038,98.284772646243
3037,102.607082968263
3036,117.042177524165
3035,127.927051646482
3034,128.353068247397
3033,128.150660926133
3032,127.702200393258
3031,127.452068804432
3030,127.520341261053
3029,140.756371157019
3028,170.922628982286
3027,163.08512100672
3026,119.123343587085
3025,107.225527500243
3024,123.955677508949
3023,264.319554960368
3022,475.349113180151
3021,419.633120990919
3020,220.894653272548
3019,155.169320302469
3018,162.62958536004
3017,317.897445590155
3016,510.96735052129
3015,444.540487208389
3014,296.558145822749
3013,229.529944446298
3012,188.063685510179
3011,157.185427474634
3010,134.698859557396
3009,151.817354895017
3008,175.089830634653
3007,178.649940208045
3006,178.200779802369
3005,177.984411954396
3004,176.217355748702
3003,164.086748101765
3002,152.275925589053
3001,150.745897201094
3000,150.519769834032
2999,150.129489578997
2998,149.756997557469
2997,149.566598871263
2996,153.749853552339
2995,176.431614474055
2994,192.010046177648
2993,170.59267087126
2992,152.363800630165
2991,161.908201722567
2990,171.792412022842
2989,172.396509606117
2988,169.714861877285
2987,158.068439754141
2986,147.853561662188
2985,146.109892126598
2984,142.97398328578
2983,131.550648521022
2982,121.611354563698
2981,119.976386105986
2980,116.945056606833
2979,105.612575061856
2978,95.7808306765767
2977,94.5891914951407
2976,98.511976757798
2975,119.144289763408
2974,137.240073096806
2973,138.547682478731
2972,136.113617223293
2971,125.490124621967
2970,115.991042426133
2969,114.834036844149
2968,120.105006640646
2967,150.021037734738
2966,177.476612701636
2965,179.951942693268
2964,175.986306934137
2963,155.823407497164
2962,141.159090151525
2961,167.360740735268
2960,197.256339347512
2959,218.694458706565
2958,237.069865233799
2957,239.579258088436
2956,239.672132461046
2955,247.580909733639
2954,256.356215464551
2953,257.292711669916
2952,254.230065169138
2951,229.516581253968
2950,201.134180879377
2949,207.964688900223
2948,226.688190358662
2947,231.345120714953
2946,230.511265607913
2945,229.645731539979
2944,228.75965947906
2943,227.813752231296
2942,226.777979429298
2941,219.911342865197
2940,209.319415174743
2939,198.974554730445
2938,189.089708452748
2937,183.820481933503
2936,182.982582115693
2935,156.436771911809
2934,99.6727491592413
2933,66.7797406532003
2932,66.4202474647574
2931,69.4103669833837
2930,78.2952165178377
2929,98.321461323837
2928,141.68344192113
2927,174.962256078327
2926,176.543255072724
2925,181.313171916579
2924,205.148442764553
2923,226.669540256668
2922,228.683384182938
2921,224.717614907847
2920,201.690678440652
2919,177.383872394267
2918,171.730730831859
2917,172.389949185353
2916,191.034300097791
2915,213.131295388811
2914,177.887798282106
2913,119.261811162256
2912,112.586516471394
2911,137.435397524576
2910,162.128217918264
2909,186.051799247742
2908,194.737193847942
2907,185.87943830623
2906,183.328188931857
2905,190.512518106347
2904,195.450423036236
2903,194.803957305033
2902,188.649613350611
2901,165.074370922725
2900,142.171409246755
2899,125.473705503551
2898,111.957030410308
2897,115.879575847903
2896,120.992527572596
2895,103.420836128899
2894,80.7285272287012
2893,73.6718568060937
2892,72.8663306845683
2891,76.8570027803957
2890,83.9923561892685
2889,106.889256031013
2888,143.989887176708
2887,162.761071337578
2886,154.756028042042
2885,146.487566146164
2884,138.592116431654
2883,133.931740502979
2882,139.693332169728
2881,140.240161545752
2880,107.726003628788
2879,74.1577613406082
2878,67.6081563975166
2877,68.4475510301588
2876,94.5086409343146
2875,129.325840422492
2874,146.18796945029
2873,152.379054049295
2872,155.126808033124
2871,154.34904256604
2870,156.108018174991
2869,162.373025068895
2868,166.681030495131
2867,166.140743654837
2866,165.361757554195
2865,164.561213023753
2864,164.371686396083
2863,169.199503254419
2862,175.054100629136
2861,180.968759321906
2860,186.774955383968
2859,188.376961325158
2858,187.488443095518
2857,186.618746394534
2856,185.768780417075
2855,186.9735658667
2854,192.426108224642
2853,196.644564229519
2852,196.122391765025
2851,194.477644139257
2850,188.03143961236
2849,180.813872054152
2848,173.635587536499
2847,166.493515765894
2846,159.577557985503
2845,152.58704884341
2844,145.686150598051
2843,138.889070320615
2842,132.114023862587
2841,125.289309495539
2840,119.773327974422
2839,118.797508202917
2838,119.481171976318
2837,129.117450686726
2836,139.696992992835
2835,137.672725694454
2834,131.178432163093
2833,124.56394590218
2832,117.969260632655
2831,116.14857589229
2830,121.187382993957
2829,124.814990238458
2828,124.366434509742
2827,121.248778480356
2826,105.542318265397
2825,88.7749601168723
2824,84.4522624962583
2823,83.9780565914607
2822,83.5089683704064
2821,83.0366130307039
2820,82.5692600451515
2819,82.130483341654
2818,83.1353149961729
2817,87.6939905779723
2816,92.4184682706036
2815,97.3601528523532
2814,101.738318289871
2813,98.2002463200779
2812,92.0057340020486
2811,85.9772920645267
2810,80.2149181075805
2809,78.612340998383
2808,83.3254948031399
2807,86.7819494403485
2806,86.6042776840698
2805,88.4276008029378
2804,105.753428852109
2803,125.036308820436
2802,130.356775492326
2801,129.626155304261
2800,131.571231530956
2799,135.878730651533
2798,138.651300460688
2797,138.027258870001
2796,138.891650746983
2795,147.141725548522
2794,155.04521036527
2793,145.269318830554
2792,129.439927825552
2791,122.429599030026
2790,121.715907645861
2789,119.287088500745
2788,113.831960764684
2787,110.063889133352
2786,113.529234136531
2785,117.315039046237
2784,117.549101373938
2783,116.793825528516
2782,113.117323062638
2781,107.53476743214
2780,103.950630289964
2779,103.25667539213
2778,104.365607294731
2777,112.361246097479
2776,119.897022107497
2775,113.691944733478
2774,103.621104135943
2773,99.4680458128125
2772,98.9030598939011
2771,101.554711337548
2770,109.829891213521
2769,116.696939828767
2768,116.821625029889
2767,116.118617062101
2766,115.411684828194
2765,114.703917243775
2764,113.99720825966
2763,113.291707090557
2762,108.548568545503
2761,94.9932755568428
2760,82.2938116136695
2759,76.2057867740332
2758,71.338737922388
2757,69.4391118614445
2756,68.9004100953043
2755,68.3786213870523
2754,67.8716625039897
2753,67.3429450379566
2752,66.7649170666808
2751,66.1888202662351
2750,65.6518216480743
2749,65.1997648635912
2748,72.2642216134032
2747,84.2349823977331
2746,96.1019217123994
2745,107.869763165451
2744,117.874513011915
2743,118.563446285496
2742,117.842942847067
2741,117.134349388178
2740,116.432020098275
2739,119.219693998712
2738,126.583666680983
2737,131.529553753054
2736,127.556747852601
2735,120.453428475898
2734,81.7847813379072
2733,33.4418966913503
2732,24.7321722942929
2731,51.9211689266345
2730,71.8759802522574
2729,72.3720014478489
2728,71.774336077165
2727,71.1905622193734
2726,70.6521106433933
2725,74.5278161199058
2724,81.4887687403493
2723,86.4607623567233
2722,86.0943135494943
2721,86.1797091435821
2720,91.9144415818032
2719,98.7369160627597
2718,96.401131579265
2717,88.2071459830579
2716,81.2616952075966
2715,76.8389546681195
2714,72.0801289114447
2713,64.7428591166253
2712,57.0076292338178
2711,53.6169028440948
2710,53.1248820722865
2709,52.610872094596
2708,52.0511826971025
2707,51.492317410764
2706,50.940679035773
2705,50.4092017169442
2704,52.0152676742923
2703,55.0682254434922
2702,59.1773550184191
2701,65.6661624660443
2700,71.5000763309116
2699,71.9951461876222
2698,71.4214703000977
2697,72.8469654971223
2696,75.7700409853015
2695,80.5814857099244
2694,90.1696081712525
2693,98.9590668320372
2692,100.203394733417
2691,99.5426357276369
2690,98.8967976274909
2689,98.2644648070444
2688,98.3622627328745
2687,100.837062465532
2686,102.75940574762
2685,92.6197824427117
2684,78.4370754815693
2683,70.6118202070849
2682,70.0140785439106
2681,69.4250258925188
2680,68.837596031515
2679,68.1355043766495
2678,63.1242447142301
2677,55.9035344500165
2676,49.8803417973624
2675,46.0826623311717
2674,42.6715569225559
2673,41.648438276451
2672,41.119806336754
2671,38.7539959855038
2670,35.0714741823928
2669,31.3339015771207
2668,27.7144056578593
2667,24.4016521123211
2666,25.5463817497573
2665,28.2529422973969
2664,30.8804648058335
2663,33.5097640534289
2662,37.1362779412557
2661,45.2376128071213
2660,54.0045593785828
2659,65.0582221377043
2658,77.478824048891
2657,86.4552306247568
2656,85.4966234956728
2655,83.6100684581943
2654,75.6669103180952
2653,65.79694781154
2652,61.6111805118684
2651,64.0284059017932
2650,66.0563725426667
2649,65.7733473334271
2648,65.1793861389869
2647,64.6034194477665
2646,64.0404878007278
2645,64.2585065635912
2644,66.5027092834294
2643,69.266624519295
2642,78.4327620727069
2641,89.4033109574332
2640,92.1880494028774
2639,82.8122117872344
2638,74.5763743023387
2637,72.8351984484313
2636,72.1744541682763
2635,68.407526360876
2634,62.1843715470021
2633,57.1001301037591
2632,56.1213184779361
2631,55.5601396896668
2630,54.9993740608956
2629,54.4398173547559
2628,53.0582276136895
2627,49.8572209898762
2626,46.5924093233459
2625,43.2669296010711
2624,40.0282814476696
2623,40.2610674075894
2622,45.1359707306003
2621,49.0707760526306
2620,46.9896114019962
2619,43.8009282754824
2618,46.3002305066961
2617,53.7723732418263
2616,60.7463524630768
2615,65.7323402186704
2614,70.4242928778786
2613,70.1329477383249
2612,66.9054939441362
2611,62.4484915481491
2610,54.3271256171389
2609,46.2086945568467
2608,43.3966728065634
2607,42.8770964025717
2606,41.5723851528074
2605,38.5441737376299
2604,35.6095868930021
2603,34.5509385855471
2602,34.0631683630467
2601,34.5525218026608
2600,36.5847462502562
2599,38.9348271796475
2598,45.0910996396293
2597,52.1357297934461
2596,58.0300923718796
2595,62.4369014714875
2594,65.6762854924873
2593,61.5386891368282
2592,56.1387092263053
2591,51.842417359583
2590,48.8597549871491
2589,46.2328731655155
2588,45.4748874863505
2587,45.0203008649373
2586,53.4569777375588
2585,69.9180250821106
2584,79.423040538345
2583,56.6824777504684
2582,30.3446981600745
2581,2.16767211912615
2580,-26.9104616169408
2579,-44.0927258797278
2578,-12.1888165542603
2577,24.2408527764621
2576,28.3112634519974
2575,9.02775297973612
2574,-10.4302788350753
2573,-33.7669328944193
2572,-57.0335380882585
2571,-40.7524290323642
2570,2.98222719764682
2569,38.1055770370805
2568,38.7177938132451
2567,36.0007423487397
2566,42.7563550558554
2565,55.5559024728945
2564,66.1625564765576
2563,66.7433874514666
2562,66.1803994607916
2561,65.6072537362782
2560,65.0303718707324
2559,62.9897170363221
2558,54.4686085082874
2557,45.0472039082356
2556,43.1848094680277
2555,47.0772317592682
2554,49.3692686964352
2553,43.48118744063
2552,36.6206849911474
2551,29.740524885342
2550,22.6932517412335
2549,15.9642575248257
2548,11.0283863064755
2547,6.37203321575409
2546,3.69558242242202
2545,3.29987576380402
2544,2.90821317021012
2543,2.51781322293973
2542,2.12867343567985
2541,3.58868088557627
2540,7.33162132404657
2539,11.207141150792
2538,16.7542960577545
2537,22.6872387944799
2536,27.6523160747856
2535,31.2951559794774
2534,34.8984054996319
2533,38.6257363638928
2532,42.3539291210362
2531,44.0880729315141
2530,41.7216541534355
2529,39.4958827443851
2528,45.3453964131059
2527,55.1763702216933
2526,59.2132512776404
2525,45.8907680985447
2524,31.5348153284978
2523,22.0241312137727
2522,15.633305221551
2521,9.78246263754231
2520,6.94749312519707
2519,4.57384244103018
2518,6.26833360330671
2517,11.7085228458627
2516,16.5558623168214
2515,17.0566662737464
2514,16.6457878528332
2513,16.2410742806297
2512,15.8457679522679
2511,15.3468144174296
2510,13.4474214968101
2509,11.1212676379759
2508,9.34419938248676
2507,8.90913924118376
2506,8.53810267422649
2505,8.13924192171334
2504,7.72669251591953
2503,7.68592617360841
2502,9.03549526887396
2501,10.5131385141962
2500,12.9827111804696
2499,16.3155149612832
2498,19.273455501656
2497,19.4535262607236
2496,19.0605609064249
2495,18.6692986065886
2494,18.280007309338
2493,17.8924367436317
2492,17.5144819708452
2491,17.1410987593636
2490,17.153104189686
2489,18.4396063200678
2488,19.8057193730717
2487,15.7124488889071
2486,8.07717708900409
2485,1.92665569861272
2484,3.88017494759441
2483,7.08307041635066
2482,11.7520677803309
2481,18.4371121789322
2480,24.9239405382825
2479,28.8475113921
2478,31.9142674300541
2477,34.1053897044413
2476,33.8648918672569
2475,33.4525898985872
2474,29.8976380949271
2473,24.3643598993321
2472,19.2016147289773
2471,16.5303496704461
2470,14.4132393458168
2469,15.27946949507
2468,21.630980774412
2467,27.8657683912179
2466,28.3319155690786
2465,26.2092718594919
2464,23.7877489670294
2463,20.1435402649415
2462,16.3846917221181
2461,15.1740854902947
2460,16.5686747919826
2459,17.9572942909983
2458,19.2719175790904
2457,20.561607169432
2456,20.4780252295238
2455,16.9816555905375
2454,13.2770435199066
2453,12.4862920860415
2452,13.7720636253425
2451,14.8744885149601
2450,14.7533244150009
2449,14.4013678236372
2448,14.5986954071981
2447,15.7236914484009
2446,16.8132823280616
2445,15.906681269958
2444,13.9052810300094
2443,12.3825451784141
2442,13.271173561062
2441,14.4925580327719
2440,15.0590201957173
2439,14.723411199835
2438,14.4246473105724
2437,15.1842868923119
2436,16.4011993457215
2435,17.3327240437458
2434,17.1090866856087
2433,16.7641443927615
2432,15.0929203921998
2431,11.590213825948
2430,8.39801273102523
2429,10.7488111332286
2428,15.0122686366967
2427,17.3472210302849
2426,11.662555813488
2425,5.08309565003071
2424,-0.0628415799784129
2423,-3.41832338931883
2422,-6.54572697092969
2421,-5.46086287119016
2420,-2.69899749879175
2419,-1.12698818482314
2418,-3.97688200136186
2417,-7.25878453071226
2416,-8.00688723499658
2415,-5.28673733710444
2414,-1.97757369451007
2413,17.6985203816607
2412,44.648944714317
2411,62.5576467708599
2410,41.8527529439
2409,16.5525217753694
2408,-0.610413982412441
2407,-4.08012807374577
2406,-7.02569632621018
2405,0.684462780879939
2404,13.8141553303265
2403,23.6786775229046
2402,15.9860680285303
2401,5.25490226876366
2400,-2.93236868739777
2399,-6.23130471231098
2398,-9.32569817781046
2397,-5.36847195507935
2396,2.93864239605797
2395,10.9653923637093
2394,16.9806175947558
2393,22.295310323157
2392,24.7498642929727
2391,19.084511986895
2390,13.0718675134171
2389,9.93905080701163
2388,9.67621522665317
2387,9.41452639145583
2386,9.14240916419752
2385,8.86602146441071
2384,8.57228676877497
2383,8.19261635667981
2382,7.80087291827268
2381,7.40581512891773
2380,6.99753087679865
2379,6.58772048454807
2378,6.24222052812022
2377,5.92953409995579
2376,5.61620172223638
2375,5.28835594606471
2374,4.95545401902911
2373,4.64333501650644
2372,4.37868520796041
2371,4.1162326756472
2370,4.50877840031938
2369,5.56048324233593
2368,6.61044771718809
2367,7.70161825720103
2366,8.80950599635768
2365,9.20636504907272
2364,5.46929573237838
2363,1.1763029315395
2362,-1.44026600931979
2361,-0.490640857075281
2360,0.594539631095605
2359,2.35711393771087
2358,4.70491358868416
2357,6.97673044757345
2356,7.3177475319336
2355,7.03063906282074
2354,6.12910811513492
2353,2.20079755771116
2352,-2.08221408755065
2351,-5.06387585378249
2350,-5.47074795365997
2349,-5.79410623075141
2348,-6.74243665291988
2347,-8.21381131826818
2346,-9.53843448688893
2345,-8.19861196780347
2344,-5.93513562500537
2343,-3.8626100297259
2342,-2.71633792721965
2341,-1.71459849274515
2340,-0.708772983095693
2339,0.312165333481987
2338,1.33126588181028
2337,1.68445515552989
2336,1.38908460107838
2335,1.13494982974063
2334,1.7449734588476
2333,2.72182090682781
2332,3.56135765159575
2331,3.47047703912408
2330,3.21563223716812
2329,3.27009205193176
2328,4.18063888738235
2327,5.11266205822666
2326,6.09568171454798
2325,7.10940368132056
2324,8.10799251803816
2323,8.339330355927
2322,8.10811394357564
2321,7.33088814553673
2320,0.420463734871422
2319,-8.41910376822087
2318,-15.9041729956357
2317,-16.8860322425442
2316,-17.0760104918112
2315,-16.5094420887098
2314,-14.3447750610487
2313,-12.1917951816097
2312,-10.5488479061407
2311,-9.5154685288264
2310,-8.56651779943078
2309,-10.0172814360861
2308,-12.7218396585875
2307,-14.9204648078725
2306,-12.6482341619072
2305,-9.3488873211819
2304,-6.78969748054868
2303,-7.72048037505377
2302,-9.04198926015432
2301,-9.68232823228029
2300,-8.73479897922485
2299,-7.75432067506819
2298,-7.29900380752486
2297,-7.49014009453647
2296,-7.67120603878993
2295,-7.11805717817567
2294,-6.1417467185792
2293,-5.13693184052739
2292,-3.23019995133381
2291,-1.06063066652129
2290,0.140688432425406
2289,-3.96792434164541
2288,-8.89721194685808
2287,-12.5701895099747
2286,-12.9364489820931
2285,-13.0891613360716
2284,-11.9291025730356
2283,-8.62422800512776
2282,-5.30513907761206
2281,-2.10600151549074
2280,1.06830383727104
2279,4.26091060951597
2278,5.91430621577833
2277,6.83601534940781
2276,7.60832666294402
2275,6.70959199448678
2274,5.36109099123088
2273,3.87723000649362
2272,1.52592827185394
2271,-1.00673913584459
2270,-2.95648746329089
2269,-3.25386293956657
2268,-3.45940921217269
2267,-3.64897856965188
2266,-3.80884922463949
2265,-3.96699257934972
2264,-6.37251973398724
2263,-11.1064883141481
2262,-15.7726619982073
2261,-17.4177137400362
2260,-17.5317711896739
2259,-17.6511309732827
2258,-17.8741986118999
2257,-18.1323716260892
2256,-18.3812496371635
2255,-18.5954358239878
2254,-18.8020563231384
2253,-18.9989014509693
2252,-19.1491837442349
2251,-19.2929739127503
2250,-19.1826515854956
2249,-18.4046379899238
2248,-17.5967103207688
2247,-15.898839987003
2246,-12.7129741993409
2245,-9.59009395744145
2244,-7.53177436848288
2243,-6.56822379573908
2242,-5.61398262873271
2241,-5.95601481956276
2240,-7.18247462040984
2239,-8.31131381607376
2238,-7.95224719582712
2237,-6.98878492269845
2236,-6.16167185375012
2235,-6.95316929576812
2234,-8.21059041372018
2233,-9.62656907784463
2232,-11.863966348933
2231,-14.190916142166
2230,-16.1264956666346
2229,-16.4676125863798
2228,-16.6358239245022
2227,-15.7596857349062
2226,-11.7878845014886
2225,-7.6169045252278
2224,-5.77448033263992
2223,-9.04687857482073
2222,-12.4867765255593
2221,-13.5346018944826
2220,-11.6118336539972
2219,-9.68425841153413
2218,-6.58273495195467
2217,-2.39888882904867
2216,1.73694761699174
2215,0.760512263788536
2214,-3.60897806156806
2213,-7.89713578551509
2212,-9.38568905362254
2211,-9.4981091835158
2210,-9.61121654386748
2209,-9.74537666847096
2208,-9.88696492582702
2207,-10.0298494394577
2206,-10.192962542033
2205,-10.3612045169733
2204,-10.4232284267406
2203,-9.6815856904106
2202,-8.77412163495759
2201,-8.29248815012177
2200,-10.1514330956071
2199,-12.3643717116651
2198,-14.1988969021302
2197,-14.4806724341292
2196,-14.5940045058571
2195,-14.7185950857143
2194,-14.879686998245
2193,-15.0428414508876
2192,-14.9107558735283
2191,-14.0567412984858
2190,-13.1721063337305
2189,-12.6181844720326
2188,-12.6935978937048
2187,-12.7838811187332
2186,-12.9039436990368
2185,-13.0685943199424
2184,-13.2330254434966
2183,-13.3926203484897
2182,-13.5467433625024
2181,-13.7000257196277
2180,-12.7441441861806
2179,-10.8051403553527
2178,-8.87750912648319
2177,-8.16234748111969
2176,-8.29045242712608
2175,-8.41110975582191
2174,-7.91112785422429
2173,-6.99247693939325
2172,-6.07444882021189
2171,-5.16574315864169
2170,-4.26260196854749
2169,-3.33400066164249
2168,-1.72257353042553
2167,0.1880439637896
2166,1.7603806456994
2165,-2.23903535132416
2164,-8.29872499173938
2163,-14.0084157742878
2162,-11.099099443658
2161,-5.11175199239381
2160,0.561332415160466
2159,2.44658772840825
2158,3.21212360119398
2157,3.77116816121355
2156,2.26881891528193
2155,0.165243342574137
2154,-1.95064325206918
2153,-4.1920133813616
2152,-6.45348353338948
2151,-8.38426873390023
2150,-7.99548332312236
2149,-7.06601292512203
2148,-6.04808676036739
2147,-4.35761552357509
2146,-2.53091096949297
2145,-0.951886004532811
2144,-0.778240736293315
2143,-0.867976542739299
2142,-0.981045692085271
2141,-1.24794715004658
2140,-1.53518185829784
2139,-1.48889204221516
2138,0.816975608469475
2137,3.53898139029441
2136,5.8658551911883
2135,5.98509528316588
2134,5.75461334914798
2133,5.41392497365633
2132,4.42620693082806
2131,3.35952328393252
2130,1.71309194766064
2129,-3.71402584092525
2128,-9.77413394878389
2127,-15.0206059903801
2126,-15.9436399312386
2125,-16.204008049123
2124,-16.3502508344256
2123,-15.7908426377496
2122,-15.1388409225361
2121,-14.2811153895292
2120,-12.0383947601415
2119,-9.63675655829565
2118,-7.44018945954567
2117,-6.52900718545923
2116,-5.88713861116076
2115,-5.17654742664199
2114,-3.78492920038036
2113,-2.22661823234004
2112,-0.891381442057046
2111,-0.979927926090603
2110,-1.37137635254888
2109,-1.75669888846003
2108,-2.10773424297792
2107,-2.45126432412344
2106,-2.65541658102644
2105,-1.59761493468647
2104,-0.239288532870611
2103,1.08202670105972
2102,1.68189348973602
2101,2.09149203180459
2100,2.56205196480998
2099,3.6267395632512
2098,4.87062576840157
2097,6.0968935579666
2096,6.64720823389138
2095,6.97434265369014
2094,7.28095454768281
2093,7.07234806570946
2092,6.66866340567028
2091,6.30151160074801
2090,6.95315809210801
2089,8.04564315271938
2088,9.14431133883537
2087,11.3112468050858
2086,14.1324221199508
2085,16.8251328667577
2084,16.4881351376389
2083,14.2507380029551
2082,12.0450919889533
2081,10.3895109984481
2080,9.24194277478164
2079,8.10310308057353
2078,7.33529110140708
2077,6.93264908388007
2076,6.5235584153444
2075,6.05171700166209
2074,5.49484715631493
2073,4.94414559699689
2072,4.44043315285811
2071,3.9946048106277
2070,3.56414451498053
2069,3.6380704011274
2068,4.63513117593136
2067,5.64749242582045
2066,6.63440628791669
2065,7.57066795171774
2064,8.49560226885351
2063,9.0833462524755
2062,8.61252121362447
2061,8.07515410408587
2060,8.05098313249702
2059,9.96787031795534
2058,12.0695682296923
2057,13.7110641129168
2056,12.9063865769227
2055,11.7611418959227
2054,10.4327337857653
2053,7.68676034065977
2052,4.65481087641838
2051,1.76935429532304
2050,0.4182811065128
2049,-0.497996358250632
2048,-1.36718726310104
2047,-1.44898644792247
2046,-1.21752191189856
2045,-1.00422154422845
2044,-1.62743594704635
2043,-2.68735316482949
2042,-3.73182181912334
2041,-3.97022991843549
2040,-3.60746561524692
2039,-3.24693843901948
2038,-2.32460725299371
2037,-0.801066532719537
2036,0.666962648675562
2035,2.15830303286969
2034,3.62047741039617
2033,5.07054403177624
2032,4.29076240762142
2031,-1.86103477955155
2030,-8.17327394933285
2029,-11.6978874102941
2028,-6.20860607976094
2027,-0.156723726371668
2026,4.94294298122753
2025,4.28673921936352
2024,2.74872914903568
2023,0.977669203403158
2022,-2.79869205016068
2021,-7.1350476524554
2020,-11.0857890762777
2019,-8.51661506477762
2018,-3.69634930596154
2017,0.922423457998628
2016,3.90284850939295
2015,5.89051748132732
2014,7.86198918908158
2013,8.34419728617922
2012,7.6020000348897
2011,6.8425157349477
2010,7.24628706968812
2009,9.30886134993594
2008,11.3736442663062
2007,13.6867232915085
2006,16.7895324730165
2005,19.907843868783
2004,22.1526036626309
2003,21.5004104172557
2002,20.5852391634019
2001,20.0151936576169
2000,21.5395476784781
1999,23.4204226512748
1998,25.1196667789594
1997,25.2658448736033
1996,24.9378522204308
1995,24.560970406921
1994,21.7597402761513
1993,17.7758077124945
1992,13.9216992781305
1991,10.837899638329
1990,8.49826997217746
1989,6.2341392787252
1988,5.54767387536473
1987,7.42362891742705
1986,9.32448920388452
1985,10.359141328541
1984,9.16559755649753
1983,7.85507315204996
1982,6.67157798882114
1981,5.89456531420868
1980,5.15289221228165
1979,4.57842686776094
1978,5.5364822372381
1977,6.89717934094798
1976,8.2253455685636
1975,8.85601497212811
1974,9.20821318126362
1973,9.56973948878069
1972,9.63966508402832
1971,9.48136585016006
1970,9.32355743125619
1969,8.95360588086005
1968,8.25117239626711
1967,7.56526678682055
1966,7.23635556377754
1965,7.98135635350414
1964,8.82224836505627
1963,9.76455399768113
1962,11.2540885033077
1961,12.8210253851735
1960,14.4536002824958
1959,16.4606508714115
1958,18.5172978877844
1957,20.5479751527373
1956,21.4891884972206
1955,21.7469723700387
1954,22.0035734478027
1953,22.0736999515415
1952,21.9270330760085
1951,21.7801832489568
1950,20.5684482061046
1949,16.6918538617462
1948,12.7955737501877
1947,9.37519274474036
1946,8.36513647095438
1945,7.70097363235198
1944,7.02795948622087
1943,6.436568232771
1942,5.88610112903973
1941,5.36723129833973
1940,7.36686571391205
1939,10.9638520346536
1938,14.5549708662371
1937,16.7001135190348
1936,16.6004282601828
1935,16.4786464766124
1934,16.4313802477121
1933,16.5998534856698
1932,16.7810038658493
1931,17.0523449896119
1930,17.9803040886011
1929,19.064970166923
1928,20.0954497771951
1927,20.1665228534862
1926,19.8854271812909
1925,19.6056629547761
1924,19.1210558821899
1923,18.4504587710285
1922,17.782670276629
1921,17.3918209565809
1920,17.6188925478234
1919,17.8682400093705
1918,17.8283728889589
1917,16.3835324089431
1916,14.7955825766362
1915,13.2889630960883
1914,12.7466522524412
1913,12.5019246955479
1912,12.2635529069063
1911,13.0775982957226
1910,14.6687660352589
1909,16.2558431108668
1908,17.677581092876
1907,18.7881127583472
1906,19.8872743306428
1905,20.8566611020036
1904,21.2381879325348
1903,21.54544205716
1902,21.8309152722634
1901,21.7995769000365
1900,21.6624841458475
1899,21.5245234834887
1898,20.8312592161618
1897,19.6828582193603
1896,18.5410226596457
1895,18.2026341046147
1894,19.5830435122718
1893,21.0147168984629
1892,22.2219858415877
1891,22.2358865583659
1890,22.070115340382
1889,21.8919433297956
1888,21.4478549066791
1887,20.8994872842981
1886,20.3524661843288
1885,23.2439774392849
1884,29.6667125341332
1883,36.0747473337056
1882,40.7288275971278
1881,40.7338899873764
1880,40.4889323271617
1879,40.1653034686782
1878,39.2677226188394
1877,38.2589258063143
1876,37.2613332270779
1875,36.5782876594484
1874,36.056466056091
1873,35.5355946965435
1872,35.2636424959912
1871,35.3412033493937
1870,35.4211359028544
1869,35.3080357744407
1868,34.420551797353
1867,33.4327734677325
1866,32.4817013524183
1865,32.0641776756536
1864,31.83059200014
1863,31.597752336727
1862,30.7288773843643
1861,29.2826650975011
1860,27.8428485541998
1859,26.5570764034289
1858,25.6702662754764
1857,24.8026769637882
1856,23.9378073939297
1855,23.311685336473
1854,22.7443969460924
1853,22.1837949697966
1852,22.0429532148307
1851,22.1692901964035
1850,22.2897215633101
1849,22.1016147074086
1848,21.2314681421507
1847,20.3378583668277
1846,19.6355993246561
1845,20.1179097083495
1844,20.8038110610692
1843,21.4585932953411
1842,21.6166965410979
1841,21.5039635055289
1840,21.3913571935668
1839,21.2673393140669
1838,21.1237341012929
1837,20.9829248602059
1836,20.8900805566827
1835,21.0765213072913
1834,21.3082526364459
1833,21.54890683698
1832,22.0615482731032
1831,22.7098166485452
1830,23.3779453883008
1829,24.013425580706
1828,24.5940074707043
1827,25.1533027158767
1826,25.5313117021996
1825,24.8637102127731
1824,24.0234100268635
1823,23.1990931734456
1822,22.8452597285126
1821,22.7127288229829
1820,22.5778113363426
1819,24.882254252356
1818,31.2585332390183
1817,37.7066178641553
1816,43.5470015576229
1815,44.3469282312262
1814,44.2700057835662
1813,44.1665504272734
1812,42.0514747247659
1811,38.6850466562824
1810,35.4180448350918
1809,33.8774486531518
1808,36.2533451646192
1807,38.7909859398598
1806,41.0218449717511
1805,41.2861748554512
1804,41.1289745442357
1803,40.9760897228935
1802,41.4016928667645
1801,42.2511079295665
1800,43.1246615986943
1799,43.6469597239364
1798,43.2221688657177
1797,42.73095245754
1796,42.3087832210688
1795,42.7222328876489
1794,43.4196830126154
1793,44.1166996105469
1792,44.4416351994979
1791,44.3706852088235
1790,44.2993551612586
1789,44.0725763603389
1788,43.1460653019729
1787,42.1136215474482
1786,41.1488726167585
1785,41.6975175325564
1784,43.0085789992614
1783,44.2763406013562
1782,44.7286718522771
1781,43.5615036788002
1780,42.3822419481912
1779,41.3094184036063
1778,41.0609163461141
1777,41.0019722595893
1776,40.9429509580363
1775,40.887980020676
1774,40.8365650748474
1773,40.7853325345051
1772,39.9515121466912
1771,36.259917747704
1770,32.222307764866
1769,28.4152427978223
1768,27.2737070579228
1767,27.2122062134806
1766,27.1506260654618
1765,27.7120437567111
1764,29.3377299688788
1763,30.98294850399
1762,32.4859513751361
1761,32.7668170768998
1760,32.7867246802591
1759,32.8042645414828
1758,33.8678530409723
1757,35.8755960888576
1756,37.8812722501397
1755,39.5221447968505
1754,39.5385357601776
1753,39.3971820700534
1752,39.2451751351302
1751,38.6559206830063
1750,37.8532307146481
1749,37.0518966408197
1748,36.8380188617112
1747,38.0419404631908
1746,39.3376654815618
1745,40.5481037625589
1744,41.2160489717325
1743,41.731423448642
1742,42.2451811139974
1741,41.7794374235646
1740,39.9600748412386
1739,38.1388026743367
1738,36.9704176046726
1737,39.9002695704812
1736,43.588798492894
1735,47.2574070347604
1734,49.5424834524894
1733,50.6389416929015
1732,51.7312129252488
1731,52.6012328836996
1730,52.5204302745252
1729,52.3403401788785
1728,52.1647514804397
1727,52.1965163032716
1726,52.348443625444
1725,52.4996619075431
1724,52.5760033391517
1723,52.4447051833134
1722,52.2995738813516
1721,52.1626136489297
1720,52.2137312196985
1719,52.3379802577965
1718,52.4615136031403
1717,52.1278027864382
1716,50.8684717590344
1715,49.5918703152054
1714,48.3859538888009
1713,47.5696034503501
1712,46.885716647967
1711,46.2050646029507
1710,45.7057610633662
1709,45.4937652916848
1708,45.2849318564935
1707,45.0085821141253
1706,44.1938253651745
1705,43.2837624322117
1704,42.3514201451489
1703,41.726368225727
1702,41.4928032416274
1701,41.2605021997042
1700,41.0380971555183
1699,40.8470548244495
1698,40.6632485822802
1697,40.4796238540942
1696,40.5767119722924
1695,40.9507440120132
1694,41.3369243037613
1693,41.8107210159078
1692,42.8431924972108
1691,43.963535983794
1690,45.0456012524883
1689,45.102424815029
1688,44.1323758672151
1687,43.1939945189001
1686,42.6049484489126
1685,44.052369840282
1684,45.8252298037602
1683,47.5877816529066
1682,48.0974935358342
1681,47.5542568550835
1680,47.0125389441145
1679,46.4418773776762
1678,45.6037081703408
1677,44.7312709333923
1676,43.8859429494273
1675,43.3104376603897
1674,43.002704957116
1673,42.7028307730855
1672,42.6057266333547
1671,43.6148525891668
1670,44.7568440384119
1669,45.9315285418536
1668,47.2935407212914
1667,48.7799933625977
1666,50.3103393142416
1665,51.8242356161954
1664,53.2200912267677
1663,54.6453181792495
1662,56.0637731892604
1661,56.8251114018178
1660,56.9676618316379
1659,57.1158743291873
1658,57.5387913068952
1657,59.8060060250494
1656,62.4848923163352
1655,65.1472316943085
1654,66.058861306889
1653,64.9530101540274
1652,63.8146032620585
1651,62.8129122833393
1650,62.9529032643257
1649,63.3384224228225
1648,63.7359468672708
1647,63.4976572928684
1646,62.3073282559029
1645,61.1141748017524
1644,59.9388047645924
1643,59.3130114964555
1642,58.8686988727375
1641,58.4263269996894
1640,58.1368767369119
1639,58.1831541689515
1638,58.2356501290016
1637,58.2744463164245
1636,58.0129375588039
1635,57.6164077375028
1634,57.2213292230111
1633,56.6987670060508
1632,55.7861300161868
1631,54.8280474507684
1630,53.8813573859109
1629,53.2551624913294
1628,52.7877359975075
1627,52.3225975297667
1626,51.8728710417849
1625,51.524141070459
1624,51.1952194869182
1623,50.867204860904
1622,50.5913913157642
1621,50.3615562554158
1620,50.1277342994647
1619,49.8750825536532
1618,49.507414654481
1617,49.1202739091419
1616,48.7345756614046
1615,48.7758869761114
1614,49.4979701156765
1613,50.2239888619367
1612,50.8805542162097
1611,51.0118770751272
1610,50.9854164450381
1609,50.9584982002767
1608,51.0247524708182
1607,51.3478958977286
1606,51.6825731274309
1605,51.9924850289695
1604,51.8928064177599
1603,51.5837740990845
1602,51.2754443767067
1601,50.9404009445299
1600,50.481146555373
1599,49.9958161601485
1598,49.5115643896782
1597,48.9148914273326
1596,48.204632784928
1595,47.4961944684415
1594,46.8424194691372
1593,46.6690416325673
1592,46.6091725887869
1591,46.5489385503613
1590,46.228989088396
1589,45.3289145611045
1588,44.412526421163
1587,43.6196431321246
1586,45.2555156008771
1585,47.9308578247718
1584,50.5928867432095
1583,53.1665337707524
1582,55.4343725217535
1581,57.6631336630248
1580,59.8827473121904
1579,61.2197115055785
1578,61.6492797649067
1577,62.0769176291745
1576,62.5573066486514
1575,63.6264783365166
1574,64.8543684111116
1573,66.1219851957489
1572,67.1272911017809
1571,67.5640074951416
1570,67.9853825411401
1569,68.3971340366759
1568,68.4313874073856
1567,68.2692641596942
1566,68.1070025272643
1565,67.8416073010856
1564,67.0707345266963
1563,66.2348330504599
1562,65.4021433717855
1561,64.7536748544999
1560,64.3506830498826
1559,63.9493200809804
1558,63.5656964829653
1557,63.4758122287746
1556,63.4900939630357
1555,63.5038298295404
1554,63.3800685193498
1553,62.7953192999639
1552,62.1757458368175
1551,61.5584731937285
1550,61.1026228100456
1549,60.7933237765542
1548,60.484535432239
1547,60.1721965582219
1546,59.8275806137952
1545,59.4728363109134
1544,59.1106920576353
1543,58.4389899017921
1542,56.82521425661
1541,55.1489269748153
1540,53.4759823488467
1539,52.1571801545955
1538,51.1342045731388
1537,50.1127567960007
1536,49.1575723680743
1535,48.7933287607445
1534,48.5698504281754
1533,48.3464580537886
1532,48.1360321069776
1531,47.9558609031701
1530,47.7787972060867
1529,47.6075242808239
1528,49.6473652315961
1527,53.47112333441
1526,57.2844385892435
1525,60.8206728920548
1524,61.9660288646437
1523,62.548740423805
1522,63.129025091984
1521,63.4092399089589
1520,62.9974442602185
1519,62.5569174043492
1518,62.1068188294902
1517,61.5521111839025
1516,60.9113432292386
1515,60.2716606725911
1514,59.6769114592162
1513,59.4937666651611
1512,59.4092716121897
1511,59.3243888012142
1510,59.1868935922981
1509,58.8845206120496
1508,58.571044427963
1507,58.2580359215735
1506,58.1188393192942
1505,58.1293011966604
1504,58.1392324123379
1503,58.1751750176415
1502,58.5362348690181
1501,59.0047234335074
1500,59.4720963819541
1499,59.8245909270691
1498,59.8080259098006
1497,59.7612730429192
1496,59.7142747578408
1495,59.6298679065347
1494,59.4968800347254
1493,59.3633585353469
1492,59.2318277101128
1491,59.1693928590875
1490,59.1391061170301
1489,59.108302840402
1488,59.2972081016865
1487,60.804810373566
1486,62.5689534398212
1485,64.3328156859002
1484,64.876451286531
1483,62.9697670640582
1482,60.9425239578851
1481,58.9249812558119
1480,57.7250108766886
1479,57.1161743672109
1478,56.5082767978993
1477,55.8765560379091
1476,55.1374089440082
1475,54.3886604374007
1474,53.6407929763859
1473,53.0037913142556
1472,52.8449730313463
1471,52.729632781444
1470,52.614030642609
1469,52.5219532487524
1468,52.4634938168685
1467,52.4025123507171
1466,52.3776097165147
1465,54.131209813367
1464,56.8536962869256
1463,59.4792736727056
1462,61.8475365382981
1461,62.258742930043
1460,62.2198806129692
1459,62.1773357308024
1458,62.118189067325
1457,62.0130662175874
1456,61.9030473684517
1455,61.7927535406013
1454,62.072791935511
1453,62.7950315569192
1452,63.5159886482966
1451,64.2388024597616
1450,64.2234048752743
1449,63.8694659480015
1448,63.5160836783013
1447,63.1374315700666
1446,62.6369908011618
1445,62.1114479924533
1444,61.5742113198609
1443,61.1402160812181
1442,60.9790595569925
1441,60.8338636009271
1440,60.6881118501621
1439,60.762045667657
1438,61.13973535594
1437,61.5012236528142
1436,61.8453368713229
1435,61.4577601278633
1434,60.686142402787
1433,59.9156315070551
1432,59.2259421940913
1431,59.3889077391907
1430,59.779607685348
1429,60.1506955994966
1428,60.4148457704512
1427,60.2730808621264
1426,60.0876677184775
1425,59.9020572734855
1424,60.0589739506083
1423,60.7762996697743
1422,61.5017656681066
1421,62.2258393529453
1420,63.441772622343
1419,65.1089332006437
1418,66.715146377273
1417,68.2788491821362
1416,69.175415787581
1415,69.8155956220386
1414,70.4795104511934
1413,70.9189772247384
1412,70.0936486568681
1411,69.0646132285854
1410,68.038058373264
1409,67.2147012664574
1408,67.034398351092
1407,66.8973480161099
1406,66.7589469058716
1405,66.9004193611285
1404,67.4537723084698
1403,68.0109983330315
1402,68.5636984759984
1401,68.0549352994031
1400,66.7220560315143
1399,65.4276058227054
1398,64.1422615191835
1397,62.9672473589481
1396,61.8340834067646
1395,60.703047197937
1394,59.7774865358533
1393,60.1951535062401
1392,60.8752526036246
1391,61.5535659166974
1390,62.3459381495849
1389,63.5339183705191
1388,64.7566366129406
1387,65.9770268808049
1386,66.3625892565516
1385,65.1568250609073
1384,63.9034844504512
1383,62.6494496059359
1382,62.5502831859688
1381,63.6840194633031
1380,64.7725491269212
1379,65.8113205169672
1378,66.6056276567731
1377,67.245174131145
1376,67.8827941054964
1375,68.5017714546611
1374,68.8848276064936
1373,69.1965787133893
1372,69.5072206949486
1371,69.7104779839044
1370,69.2497152117335
1369,68.6849678335767
1368,68.1206973231559
1367,67.6273607756041
1366,67.3673037400914
1365,67.1235110436283
1364,66.8796009837664
1363,66.7649088818843
1362,66.8800151864383
1361,67.0088111578502
1360,67.136796922744
1359,66.93284044686
1358,66.3517318624865
1357,65.7704224948032
1356,65.1928364969262
1355,64.9210809082519
1354,64.8368639371476
1353,64.7487671077748
1352,64.6005904548409
1351,63.2469687624208
1350,61.4019744733905
1349,59.5586426897843
1348,58.0023493613249
1347,58.8910620749791
1346,60.4040544241032
1345,61.9147137613031
1344,63.0341692449167
1343,62.0754907936237
1342,60.8387485327883
1341,59.6375462327029
1340,58.8363561695781
1339,59.4234308340714
1338,60.0950581324092
1337,60.7926810031432
1336,61.1788343565118
1335,60.8819595551338
1334,60.5645083016312
1333,60.2511614576355
1332,60.1792333927357
1331,60.4551201647895
1330,60.7181396341662
1329,60.9951870399882
1328,61.0496316938189
1327,60.8996349075211
1326,60.7509306679039
1325,60.60218382943
1324,60.4718463377279
1323,60.3521114097563
1322,60.2294078865137
1321,60.160160872404
1320,61.0759090829989
1319,62.342507404574
1318,63.6533915776929
1317,64.9209876072673
1316,65.7074853533303
1315,66.4028487029167
1314,67.0958185997569
1313,67.6845757835768
1312,67.7256118806893
1311,67.6591612665308
1310,67.5922245420507
1309,67.5058099229679
1308,67.3425869712984
1307,67.1675514840883
1306,66.9911210903933
1305,66.7653504797147
1304,66.3631536299387
1303,65.9511896534192
1302,65.5398029414646
1301,64.9761910878444
1300,64.0137423951151
1299,63.0514421478465
1298,62.0649077360802
1297,61.448541903522
1296,61.5531985821345
1295,61.672411065043
1294,61.801289318159
1293,61.5978540781852
1292,60.9015571295183
1291,60.2024258354073
1290,59.4877960860288
1289,60.3887049562103
1288,63.0999162655206
1287,65.8080001053737
1286,68.6061902346988
1285,68.0625616064809
1284,64.6191206017872
1283,61.1827469563925
1282,57.6617096006257
1281,55.7301245870283
1280,54.9392929844604
1279,54.1490037576035
1278,53.3406982027651
1277,52.564501360942
1276,51.8240248506644
1275,51.0836944685365
1274,50.344213617245
1273,49.6176822176115
1272,48.9077480389195
1271,48.2157372801854
1270,47.5400552206856
1269,47.2027111177006
1268,47.0059760825195
1267,46.8090019383045
1266,46.6474395458078
1265,47.0353079140613
1264,47.6070212324053
1263,48.2037901473009
1262,48.8151346568588
1261,49.569452047063
1260,50.3679900877945
1259,51.1644259832424
1258,51.9228823834411
1257,52.2889161478766
1256,52.5407404567366
1255,52.7765270226508
1254,52.9441695179683
1253,52.5380718756655
1252,52.0014255796942
1251,51.4540019393864
1250,50.954524801083
1249,50.7865376448351
1248,50.6775429627197
1247,50.5683130973299
1246,50.445195905676
1245,50.2260321133242
1244,49.9875933939219
1243,49.7489745319463
1242,49.5245804354595
1241,49.3785025577865
1240,49.2444862043412
1239,49.1102152233481
1238,48.937757232103
1237,48.5353700866191
1236,48.0874287807351
1235,47.639426857686
1234,47.3211682589587
1233,47.6120784339081
1232,47.9849324542182
1231,48.3567216199084
1230,48.6610101669711
1229,48.6096724623572
1228,48.5054915636824
1227,48.4008664949429
1226,48.2236093105933
1225,47.6697089203709
1224,47.0721795038868
1223,46.4740605238834
1222,45.935903745397
1221,45.6930793971041
1220,45.4893287902601
1219,45.2853435562787
1218,45.161639865897
1217,45.466826280625
1216,45.8343186129177
1215,46.2007772761971
1214,46.4521132265102
1213,46.0280110534513
1212,45.4943131786138
1211,44.9609926495589
1210,44.435923920592
1209,44.0102125569968
1208,43.6066730274246
1207,43.2029691372782
1206,42.8660658408549
1205,42.9074059245363
1204,43.0079146891586
1203,43.1084997124405
1202,43.0334446816395
1201,41.8383742095082
1200,40.4477330734879
1199,39.0591378161433
1198,37.7913379795303
1197,37.3891868969042
1196,37.1593913863876
1195,36.9294036249814
1194,36.703752703621
1193,36.5161792024639
1192,36.337011671592
1191,36.1576018439619
1190,36.1036770035379
1189,37.302110872328
1188,38.820292497933
1187,40.3366158906251
1186,41.751735070874
1185,41.9704185279925
1184,41.8394428695672
1183,41.7078528437089
1182,41.5822114594857
1181,41.5541954168021
1180,41.5582051087964
1179,41.5614977055161
1178,41.5271535748847
1177,40.7854510157799
1176,39.800604754932
1175,38.8175819915008
1174,37.8234199527622
1173,37.4658525531572
1172,37.4584349542298
1171,37.4502977473622
1170,37.4390643363234
1169,37.2182137670455
1168,36.8630604792302
1167,36.5081063168752
1166,36.1545024722052
1165,36.0458701621099
1164,36.1218520006663
1163,36.1972941185515
1162,36.2721968896058
1161,36.12066733357
1160,35.7700826988683
1159,35.4196709264327
1158,35.0657065145315
1157,34.7500357838506
1156,34.4875262752916
1155,34.2252170553918
1154,33.9627757023474
1153,33.7439296568218
1152,33.5976205610083
1151,33.4522112219432
1150,33.3033276131673
1149,33.1207808486962
1148,32.8580117045487
1147,32.5911913795112
1146,32.3242502319672
1145,32.1376809483599
1144,32.1909647104841
1143,32.2590675265959
1142,32.3156705834614
1141,32.581570833208
1140,33.8225236768291
1139,35.1796940911686
1138,36.5340985044738
1137,37.8091764132815
1136,38.6469080455908
1135,39.3799302935624
1134,40.1105822091627
1133,40.8014606782528
1132,40.7983499306631
1131,40.6204735427425
1130,40.4423814705528
1129,40.2543492580131
1128,39.9411507962357
1127,39.5880866994032
1126,39.2317204690147
1125,38.8820462237318
1124,38.7476664223724
1123,38.7087722584053
1122,38.6695990052197
1121,38.6367191619175
1120,38.3918586833068
1119,37.9873735132965
1118,37.5830238359385
1117,37.183627237561
1116,36.8002289771322
1115,36.4319589426348
1114,36.0639448019829
1113,35.6961304133378
1112,35.6603704127813
1111,36.1903585538673
1110,36.7555770610753
1109,37.3210787747776
1108,37.753295133396
1107,37.8896288870851
1106,38.0245316047508
1105,38.1599525203174
1104,38.1544631428689
1103,37.5963462861472
1102,36.9803482324866
1101,36.3532349993225
1100,35.7728463841388
1099,35.5003761261757
1098,35.2854572963224
1097,35.0719875044944
1096,34.8543301705765
1095,34.5859101051919
1094,34.3015634862856
1093,34.0164791578484
1092,33.7086870665738
1091,32.6346501703507
1090,31.1589501218311
1089,29.6432253376818
1088,28.1317542381643
1087,27.8496770732146
1086,28.6082206304178
1085,29.4004912467228
1084,30.156069794582
1083,30.5750971231287
1082,30.423686238925
1081,30.2601842277611
1080,30.0930684319984
1079,29.617087560852
1078,28.2303174643927
1077,26.8241127189538
1076,25.4185888212748
1075,24.3584480698511
1074,25.2153464416656
1073,26.2876595325494
1072,27.3594670330543
1071,28.3481077898634
1070,28.1482978607792
1069,27.657117721584
1068,27.1585076371633
1067,26.6448510196282
1066,25.2945302838483
1065,23.5038151793102
1064,21.7642878355423
1063,20.0251748343015
1062,19.1590738114776
1061,19.10013470098
1060,19.0405981910034
1059,18.9874984641068
1058,18.8229434718807
1057,18.4799692330956
1056,18.1320395317298
1055,17.7870209558421
1054,17.4960388418286
1053,17.3833828114093
1052,17.2795373604143
1051,17.1753817334337
1050,17.1301365759197
1049,17.517197913733
1048,18.0078291080837
1047,18.4731132426751
1046,18.9714686421932
1045,20.104101490435
1044,21.4101160111484
1043,22.7160843855066
1042,24.0209561556381
1041,24.8499620053233
1040,25.3409358688507
1039,25.8050743917148
1038,26.2679713769337
1037,26.4099439298213
1036,26.0240671399691
1035,25.6290792056056
1034,25.2382483531355
1033,24.7211902902425
1032,23.8030379871699
1031,22.851178771401
1030,21.8758457073889
1029,20.9989086244222
1028,20.6832522148531
1027,20.4712847409467
1026,20.2591699754963
1025,20.0546633918392
1024,19.9525418116037
1023,19.8931852028203
1022,19.8336314011725
1021,19.7738812068385
1020,19.648302965934
1019,19.4603443503841
1018,19.2721069427085
1017,19.0835917643403
1016,19.695564838661
1015,21.8923168553714
1014,24.1359314130392
1013,26.3730904139913
1012,28.2554590824504
1011,28.5305525366856
1010,28.5851576079525
1009,28.6385257759656
1008,28.6639461727795
1007,28.3286427109941
1006,27.8714195591541
1005,27.4143176764296
1004,26.9587210157683
1003,26.7495372879342
1002,26.7337948563611
1001,26.7271163001888
1000,26.7105169728463
999,26.5888596159943
998,26.2864225596928
997,25.9801228199482
996,25.6738010981524
995,25.3896419928489
994,25.1943541208422
993,25.0090311442889
992,24.8232914457318
991,24.6555989699046
990,24.8541890624868
989,25.1716695407422
988,25.4900064535846
987,25.809096726268
986,25.8021752024382
985,25.5322845657592
984,25.2623128732225
983,24.9922610237266
982,24.6875459684741
981,24.3122824027287
980,23.9347258613798
979,23.5573752525081
978,23.1978947080132
977,22.9256391953133
976,22.6662838597545
975,22.4068430105864
974,22.141228648543
973,21.7518138813639
972,21.3116800802979
971,20.871651106669
970,20.4317278863874
969,20.0609187963127
968,19.7636464537968
967,19.4664117563002
966,19.1690976672928
965,18.9073683999743
964,18.7563597349375
963,18.6118319396097
962,18.4668518476636
961,18.3294764956415
960,18.254605891186
959,18.2032225168967
958,18.1514189243772
957,18.0942845907849
956,17.7188845412992
955,17.1490085421065
954,16.5697550338877
953,15.9908670689691
952,15.6319515881171
951,15.6902537642256
950,15.7476219887436
949,15.8170965623388
948,15.9470012045789
947,16.4364117353375
946,16.9785947372744
945,17.4909048777873
944,18.0343249091442
943,18.6554724850845
942,19.2790572734886
941,19.9335625889296
940,20.5858945776687
939,20.8764848803206
938,20.6521665826781
937,20.4198521646377
936,20.1900840361118
935,20.1183861414883
934,20.6992672754457
933,21.3815113425657
932,22.0593894487618
931,22.6654627848843
930,22.4581454704525
929,21.9131191793525
928,21.3767439900788
927,20.8327979548762
926,20.6235923316464
925,20.8238064683805
924,21.0430999182877
923,21.2627053306846
922,21.3905534737329
921,21.2102782264011
920,20.9952915123668
919,20.776942875235
918,20.5656015328877
917,20.4173521892532
916,20.2869696716698
915,20.1566565258146
914,20.0328974550869
913,19.6813166033279
912,19.0356005240237
911,18.3778149630007
910,17.7208743551137
909,17.1375777886049
908,16.8314420427306
907,16.5588673776617
906,16.2849352187624
905,16.0237534039115
904,16.1833347893875
903,16.5306256728309
902,16.8541768066769
901,17.1766939574113
900,17.4911200832282
899,17.7561265242674
898,18.0002623346718
897,18.2443558523055
896,18.4431992436714
895,18.2716566093415
894,18.0339270204826
893,17.7989341335428
892,17.5833552843189
891,18.27049950316
890,19.4460636618916
889,20.6200548265526
888,21.8457626564832
887,22.7293454956419
886,22.8417472796697
885,22.9305633829889
884,23.0333170877045
883,23.0731329081449
882,22.5711158050361
881,21.9504533789303
880,21.3201973258156
879,20.6910190080172
878,20.0891915158308
877,19.5015503125006
876,18.9147425600144
875,18.3192891428514
874,17.8431569646203
873,17.766134635456
872,17.7191881198081
871,17.6720151070843
870,17.6259702238166
869,17.4213535375263
868,17.150251210995
867,16.8791679386255
866,16.6081048551418
865,16.108103588495
864,15.2181656582437
863,14.3419169994034
862,13.4673436541044
861,12.6391834532369
860,12.1469429317686
859,11.7196727281595
858,11.2928737489225
857,10.871670855866
856,10.8462091642495
855,11.1315932499201
854,11.4167069820701
853,11.7230941668282
852,12.1723282621809
851,13.0513234916413
850,13.9615649347423
849,14.8704190390845
848,15.7648269935505
847,16.2839863255306
846,16.654312328491
845,17.0232957276802
844,17.3670342018573
843,17.3794110552532
842,16.768511764525
841,16.1446128900834
840,15.5218234652348
839,14.9087843421406
838,14.3861715645432
837,13.8902615805566
836,13.400509146035
835,12.9109977532594
834,12.650916676428
833,12.6487228617789
832,12.6464950082191
831,12.6442345010398
830,12.6146252548635
829,12.4278293206311
828,12.2147311627328
827,11.9978570569125
826,11.784251129828199
825,11.9362163019961
824,12.3303246026333
823,12.7235560196097
822,13.1159121116548
821,13.3925782761228
820,13.2575283672685
819,13.0855562204022
818,12.9133559108421
817,12.744397705141
816,12.7509025187879
815,12.8443727063884
814,12.9232407850142
813,13.0020090124407
812,12.892863347885
811,12.3497316029747
810,11.7898431783734
809,11.2304783750001
808,10.6989722108863
807,10.6195972825168
806,10.7000712295885
805,10.7804658869206
804,10.8607827296188
803,10.8501502843911
802,10.6620254873573
801,10.4695545870221
800,10.2771904304199
799,10.0721715182313
798,9.70627836400417
797,9.29234063877255
796,8.87885854043101
795,8.4658327183394
794,8.2356867841351
793,8.31110461339172
792,8.39084215742472
791,8.47009005646674
790,8.52430818399349
789,8.32670658634491
788,8.06346554719014
787,7.80026586000809
786,7.5371089860461
785,7.16282020959597
784,6.62526709152597
783,6.0873464900716
782,5.55037819184161
781,5.06477284133992
780,5.01784227175823
779,5.07183301333029
778,5.12530168482145
777,5.17825013881671
776,5.73912861720092
775,6.96706438146995
774,8.19539463087323
773,9.42106955325325
772,10.43897121986
771,9.87982098851567
770,8.9920031194188
769,8.10514120616619
768,7.21923623677776
767,7.44387074137362
766,9.00281118226549
765,10.5602797375093
764,12.1141946094988
763,13.4761493030386
762,13.506440072327
761,13.2812012616244
760,13.0561025246728
759,12.827190927355
758,11.9481296091192
757,10.1214381329043
756,8.2904869925341
755,6.4628130334428
754,4.73715672234069
753,3.90787539450614
752,3.29215594683774
751,2.67708749961922
750,2.0626711787068
749,1.66535619474269
748,1.57270628127466
747,1.47408504505819
746,1.37583075218068
745,1.27784060685216
744,1.07446241377408
743,0.839736428654429
742,0.605171515487367
741,0.37076904795041
740,0.308470953845531
739,0.55095228205079
738,0.798605953235978
737,1.02517407521407
736,1.24438099591949
735,1.3570332800599
734,1.42177439303914
733,1.48652452646416
732,1.55128532767615
731,1.51504201868061
730,1.24717568791106
729,0.970655623978256
728,0.696161467749072
727,0.43204463872002
726,0.516784858227146
725,0.772327332282286
724,1.02787637525063
723,1.26265113087546
722,1.35271508308216
721,0.910423755318935
720,0.414882588558568
719,-0.0800026803727623
718,-0.573549503015966
717,-0.99980585090497
716,-1.38014107512784
715,-1.76001636275878
714,-2.14150585842581
713,-2.23264903441532
712,-0.800751433717927
711,0.847208698678589
710,2.42260688526131
709,3.99593641831696
708,4.76831923710648
707,4.50116189195502
706,4.23289696151789
705,3.96263838761923
704,3.70081776419349
703,3.52851767777223
702,3.3797288729576
701,3.23106634623202
700,3.07607101852671
699,4.01870093434209
698,7.31900628801928
697,10.6895635638651
696,14.0511093638181
695,17.1721422010629
694,17.31038850976
693,16.1379877103879
692,14.9676042129232
691,13.8287396904862
690,12.8604260938702
689,12.521329277159
688,12.2480997122097
687,11.9751295595697
686,11.7000453252167
685,11.3692570094436
684,10.9909532096455
683,10.6130827146433
682,10.2370655359829
681,9.8715947238786
680,9.58428538575151
679,9.31410498934365
678,9.04182505630098
677,8.76982095169051
676,8.16216921473364
675,6.95646930136057
674,5.77214424865384
673,4.58905586831601
672,3.3989628405029
671,2.73323419559509
670,2.27864318558912
669,1.82001349066914
668,1.36200304860107
667,0.862803505399607
666,0.183213581855644
665,-0.525676828479715
664,-1.23416266775493
663,-1.928527162432
662,-2.35442156967169
661,-2.51266253226232
660,-2.67646939934949
659,-2.83995053720839
658,-2.99164052147026
657,-3.09708891231137
656,-3.18840409752002
655,-3.27066051479665
654,-3.35240157312412
653,-3.32811546410176
652,-3.03233653436057
651,-2.70411528186253
650,-2.39961682759408
649,-2.10005188044457
648,-2.18518526270576
647,-2.53136929934526
646,-2.87707790287864
645,-3.22317809988709
644,-3.51073338891774
643,-3.4021523631344
642,-3.20669267091608
641,-3.02979310690857
640,-2.85299679479184
639,-2.77914229129064
638,-2.93045922468233
637,-3.0859695933223
636,-3.23511763941542
635,-3.37085374046027
634,-2.62327565683818
633,-1.37963255568983
632,-0.193164883438622
631,0.99204894400359
630,1.99044827129686
629,1.90353697661389
628,1.66148416682344
627,1.41678084307118
626,1.17242273495873
625,0.948064325551377
624,0.746115865747178
623,0.544756532652923
622,0.348187109199141
621,0.147442820398005
620,-0.0489052179807855
619,-0.243055757740736
618,-0.436847838500339
617,-0.625510290209566
616,-0.843648222572332
615,-1.19320565028852
614,-1.5593811022521
613,-1.92495601427141
612,-2.29159901428245
611,-2.37263948592244
610,-1.99047352084886
609,-1.60507855065054
608,-1.22066495142591
607,-0.814725506693481
606,-0.539536236261575
605,-0.316174007204396
604,-0.0925986957610046
603,0.131192007311928
602,0.320943317637053
601,0.277842666322762
600,0.204155171895747
599,0.121820531280074
598,0.0396715095294993
597,-0.0207411573854991
596,-0.0363405759183782
595,-0.0507987496480686
594,-0.0651823844474397
593,-0.0609789480634899
592,0.375820083422648
591,1.09534124299716
590,1.81447273597529
589,2.53321714742389
588,3.17714459352313
587,3.10203522103673
586,2.86253967936139
585,2.62352484503259
584,2.38499238026424
583,2.16705318501046
582,2.00940931079143
581,1.85667608276412
580,1.71058942336073
579,1.55876619626869
578,1.28215609747691
577,0.881137919864617
576,0.480666479737263
575,0.0807431037513512
574,-0.315497364196665
573,-0.659681567006204
572,-0.983610485031989
571,-1.30697758475126
570,-1.62978130416537
569,-1.93455983901982
568,-2.14941623234624
567,-2.35253852825845
566,-2.55522080867795
565,-2.7574613925017
564,-3.33355717268284
563,-4.60668214051849
562,-5.89839151806846
561,-7.18954168686089
560,-8.46862668420379
559,-8.61775200328558
558,-7.9785931982722
557,-7.33978557984265
556,-6.73625466102166
555,-6.14275848419289
554,-6.09335316202712
553,-6.2173493948007
552,-6.34082354571179
551,-6.46377367402451
550,-6.35446138727975
549,-5.25353012843363
548,-4.05467742091738
547,-2.85842124593023
546,-1.66475637472284
545,-1.04876949832557
544,-1.36555923739076
543,-1.6978756767314
542,-2.03052415511915
541,-2.35943233346444
540,-2.07219672774112
539,-1.35700798702096
538,-0.641352174781721
537,0.0747748758412889
536,0.706889583384676
535,0.666642881148958
534,0.405323193471419
533,0.144547139422864
532,-0.115683590790359
531,-0.497489571878486
530,-1.39161814035757
529,-2.32382344693172
528,-3.27863530136599
527,-4.23186913624776
526,-5.04263946236463
525,-5.57353711129653
524,-6.08610886819884
523,-6.60613336365408
522,-7.12533826308562
521,-7.56292595773181
520,-7.92770644592774
519,-8.28901240164961
518,-8.65207055078421
517,-9.01072757100754
516,-9.27983170613901
515,-9.51277712311338
514,-9.74729912614953
513,-9.97912752355098
512,-9.95834232698771
511,-8.21077654074869
510,-6.05067911961056
509,-3.89753056165479
508,-1.75131272069022
507,-0.121219778356655
506,-0.0974910030700731
505,-0.165223667139171
504,-0.232603320806523
503,-0.308152514119362
502,-0.425969275016938
501,-0.626821928453445
500,-0.832213358293685
499,-1.03363541222948
498,-1.23491699385193
497,-1.54960959172092
496,-1.95451138011615
495,-2.35832635908018
494,-2.75693483214902
493,-3.20656509706157
492,-4.57874661943422
491,-6.27540102707116
490,-8.02348384145654
489,-9.7687685139126
488,-11.3597348402829
487,-12.1498486430068
486,-12.7591189020214
485,-13.3544421098471
484,-13.9603979152106
483,-14.3996309137679
482,-14.2399835350443
481,-14.0102942356494
480,-13.7802214603531
479,-13.5684031197534
478,-13.3803676491824
477,-13.2759922748541
476,-13.1872093642159
475,-13.0973990934694
474,-12.9926099473567
473,-12.8840448948517
472,-12.7862325587601
471,-12.6739745143097
470,-12.5614474352744
469,-12.4425053253388
468,-10.8170024036725
467,-8.1565080126451
466,-5.49526196547415
465,-2.94220258831118
464,-0.412847417925432
463,0.293039915955023
462,0.363881576244746
461,0.435437575421083
460,0.521316211714861
459,0.489182988079556
458,-0.34870901259992
457,-1.33208905114154
456,-2.34183949510724
455,-3.35086347749713
454,-4.18778247789468
453,-4.44096505705333
452,-4.62874811727731
451,-4.81581424310684
450,-5.00527567794588
449,-5.1366946930587
448,-5.1073417761265
447,-5.06974591380062
446,-5.04270287701056
445,-5.0148690766691
444,-5.01708097714082
443,-5.06176268406842
442,-5.10629806150598
441,-5.1581313911269
440,-5.20904985250223
439,-4.76440469694171
438,-3.8443498649191
437,-2.96765291716827
436,-2.09042604563928
435,-1.21688115836774
434,-0.779180579464933
433,-0.637292473753123
432,-0.50962142648969
431,-0.38102744958899
430,-0.260499403025718
429,-0.35991947325604
428,-0.555097733283235
427,-0.752090275673363
426,-0.948316092978211
425,-1.13475532935584
424,-1.20701742078799
423,-1.24852236118808
422,-1.29737314284899
421,-1.345431559549
420,-1.40888334805822
419,-1.57684926381738
418,-1.7638375597395
417,-1.95258189584784
416,-2.14044994452457
415,-2.3048491602102
414,-2.3725856486623
413,-2.42119741460094
412,-2.4690104680623
411,-2.52366243072206
410,-2.60304801429844
409,-2.75360989334222
408,-2.9076359790117
407,-3.06079695071747
406,-3.20934651568611
405,-3.16922900192163
404,-2.77279615530951
403,-2.36677368533935
402,-1.95974340022487
401,-1.55170100335175
400,-1.37113218566691
399,-1.57360124100066
398,-1.7813538013381
397,-1.98967967544083
396,-2.19713724369692
395,-1.66616019905491
394,-0.301702760460064
393,1.06436329153037
392,2.43204784829728
391,3.85931721175969
390,4.44645562817462
389,4.35097576085554
388,4.25627315517358
387,4.16234969511198
386,4.06425721354674
385,3.43335900664525
384,2.45235123706488
383,1.47267512098841
382,0.494331134589329
381,-0.500758425377745
380,-1.17499866631277
379,-1.67492733743473
378,-2.17346224670365
377,-2.67060207088415
376,-3.14575686202354
375,-3.14885687301848
374,-2.95564332135714
373,-2.7618266391709
372,-2.56740456554274
371,-2.38377325476274
370,-2.41958094626771
369,-2.53379391188051
368,-2.64727999364526
367,-2.76421681218384
366,-2.83090294010314
365,-2.37452647587373
364,-1.77752587870426
363,-1.17961941793241
362,-0.580802929482474
361,0.0407601119358087
360,0.868693672565268
359,1.74767049853304
358,2.62703150903153
357,3.50678028150228
356,4.31899374117154
355,4.54923051489141
354,4.64830791686866
353,4.74840366021086
352,4.84952062099185
351,4.94247570336272
350,4.96466190017803
349,4.97264213123336
348,4.98157434902603
347,4.99146085558715
346,5.01276268883925
345,5.12302531484529
344,5.24923804592815
343,5.36373769284273
342,5.47930105758725
341,5.67712284764853
340,6.27827003425282
339,6.93619970689421
338,7.59655769457196
337,8.25935710459758
336,8.8509239874604
335,9.09930820132195
334,9.30582378362376
333,9.51404604953798
332,9.72398217663656
331,9.90147608715672
330,9.92763147267297
329,9.93671332417871
328,9.93819626045633
327,9.94063358761551
326,9.92489629594707
325,9.75221875045443
324,9.55575098778405
323,9.36030272419982
322,9.16587570230546
321,8.99802256865084
320,8.97063808209531
319,8.96524646079026
318,8.96080381903227
317,8.95731217971166
316,8.92418530842761
315,8.73080239765521
314,8.51502305609883
313,8.30032257684941
312,8.08670265063534
311,7.98972007843525
310,8.48630531498735
309,9.06764283661078
308,9.65007604602389
307,10.2336091535884
306,10.8838281689404
305,11.8172807848899
304,12.7969577414957
303,13.8246074552128
302,14.8532366855429
301,15.8518384331679
300,16.6435744013284
299,17.3977024220823
298,18.1526946200363
297,18.9085548363254
296,19.61734846786
295,20.0091500770272
294,20.3437935140876
293,20.6795665303246
292,20.9959573701901
291,21.3024604823671
290,21.528730969419
289,21.731319647835
288,21.9350200523432
287,22.1398350245321
286,22.4031310932291
285,23.2016488351338
284,24.1316571489343
283,25.0628761561554
282,25.9519954881242
281,26.800235972081
280,27.1024192984908
279,27.2149245516775
278,27.3279485428577
277,27.4414934667192
276,27.600927646491
275,28.4120409312756
274,29.3898581526503
273,30.3684140751363
272,31.3945304408836
271,32.4049407958436
270,33.0046780250309
269,33.4270779092
268,33.849995134044
267,34.2498399723159
266,34.6521161446675
265,35.1858710730693
264,35.7824362961899
263,36.3800769561982
262,36.9787966384566
261,37.6253681260439
260,40.994713102051
259,46.1056834877634
258,51.4314743469176
257,56.760065940752
256,62.0886252493679
255,66.1278358177702
254,68.9997922410691
253,71.8742322409747
252,74.8753616834611
251,77.879437738955
250,80.5253829450381
249,82.6639878215678
248,84.8036848140878
247,87.0396188493225
246,89.2768985243099
245,90.7363075425757
244,90.9563426163765
243,91.1459138150303
242,91.3369708627959
241,91.5467269703846
240,92.5407741167908
239,95.2435221943278
238,97.8925725130263
237,100.544029399904
236,103.313991417086
235,104.791800670149
234,102.396839035455
233,99.8366451423443
232,97.2783773773449
231,94.6290541811742
230,92.338803551151
229,91.5590539201669
228,90.9445156664513
227,90.3153024641761
226,89.6870145796203
225,89.0743642114321
224,88.5631259185115
223,88.0678911016562
222,87.5626519419547
221,87.0586017150518
220,86.5678654870644
219,86.0888854599601
218,85.6029105342049
217,85.1177081323938
216,84.6440997068039
215,84.1785291135898
214,83.8950322197235
213,83.6982837420565
212,83.5027770749304
211,83.3085946240271
210,83.1103868615874
209,82.4566699850881
208,81.5450877878051
207,80.6339162552718
206,79.6941446758716
205,78.7837018339307
204,78.4464714932252
203,78.7920265229052
202,79.1413298862649
201,79.4722431175037
200,79.8051309764233
199,79.4764994250359
198,77.9208118296361
197,76.3959119276446
196,74.8724577251003
195,73.2961937662705
194,71.9725220745764
193,71.2317582394392
192,70.5014447964944
191,69.7939349909777
190,69.0872745159977
189,68.5185055223906
188,68.7368868980233
187,69.0449070795918
186,69.3547392097078
185,69.6848421215724
184,69.9837467119595
183,70.1373875541221
182,70.268230944767
181,70.3892280100808
180,70.5110527541523
179,70.638940888481
178,70.6473819504414
177,70.6104168383098
176,70.5790174748195
175,70.5448319768844
174,70.5123854085419
173,70.5793367936371
172,70.7095492816313
171,70.8406019227747
170,70.9830981990386
169,71.1158284928595
168,71.2526937805244
167,71.4069322686885
166,71.5521009305562
165,71.6990673813424
164,71.8588884616501
163,72.0966223449278
162,72.5690342210221
161,73.0774193715851
160,73.5623652052072
159,74.0482217437232
158,74.6331871431992
157,75.7730890636331
156,77.0448451489943
155,78.2644568969324
154,79.4855541433832
153,80.7248354748442
152,81.5368136027249
151,82.2438091708864
150,82.9521370514262
149,83.6618001750684
148,84.3932205034529
147,84.5722571911286
146,84.4612459768996
145,84.3516546879653
144,84.2434846901879
143,84.1371720192991
142,86.0984584743263
141,90.5218540736704
140,94.945903292334
139,99.3706143229315
138,103.978522301448
137,107.304463678004
136,107.865050177705
135,108.316667604187
134,108.769839184552
133,109.248320149698
132,109.722596034825
131,110.296010360045
130,110.883890952215
129,111.473386136378
128,112.093607887114
127,112.704583498025
126,113.584776016563
125,114.547991318976
124,115.513360648789
123,116.480890829655
122,117.456408352219
121,119.194572986006
120,121.51299745871
119,123.939319028378
118,126.27624596066
117,128.622315338574
116,130.512435114755
115,131.619001525795
114,132.718059250752
113,133.817722706243
112,134.917992540489
111,135.869883947595
110,136.247355586686
109,136.560429123369
108,136.891911347851
107,137.205187439974
106,137.740902891327
105,140.279231227325
104,143.338637038516
103,146.394335582976
102,149.446324272951
101,149.293250049611
100,149.141703473421
