3996.35772,0.030705
3994.428976,0.030785
3992.500232,0.030844
3990.571488,0.030787
3988.642744,0.030619
3986.714,0.030504
3984.785256,0.030634
3982.856511,0.030839
3980.927767,0.030902
3978.999023,0.030968
3977.070279,0.031082
3975.141535,0.031032
3973.212791,0.030926
3971.284047,0.030966
3969.355303,0.030983
3967.426559,0.030978
3965.497815,0.031067
3963.569071,0.031039
3961.640327,0.030886
3959.711583,0.030834
3957.782839,0.030812
3955.854094,0.030767
3953.92535,0.030871
3951.996606,0.031108
3950.067862,0.031221
3948.139118,0.031131
3946.210374,0.031023
3944.28163,0.030983
3942.352886,0.030893
3940.424142,0.030736
3938.495398,0.030675
3936.566654,0.03078
3934.63791,0.030912
3932.709166,0.030892
3930.780422,0.030739
3928.851677,0.030699
3926.922933,0.030805
3924.994189,0.030803
3923.065445,0.03066
3921.136701,0.030604
3919.207957,0.030694
3917.279213,0.030786
3915.350469,0.030838
3913.421725,0.030759
3911.492981,0.030508
3909.564237,0.030423
3907.635493,0.030614
3905.706749,0.030769
3903.778004,0.030834
3901.84926,0.030983
3899.920516,0.031101
3897.991772,0.030965
3896.063028,0.030739
3894.134284,0.030674
3892.20554,0.030681
3890.276796,0.030659
3888.348052,0.030679
3886.419308,0.030684
3884.490564,0.03057
3882.56182,0.030469
3880.633076,0.03048
3878.704332,0.030551
3876.775587,0.030716
3874.846843,0.030945
3872.918099,0.031111
3870.989355,0.031188
3869.060611,0.031237
3867.131867,0.031248
3865.203123,0.03109
3863.274379,0.030772
3861.345635,0.030527
3859.416891,0.030515
3857.488147,0.030691
3855.559403,0.030856
3853.630659,0.030842
3851.701915,0.030692
3849.77317,0.030521
3847.844426,0.030405
3845.915682,0.030382
3843.986938,0.030392
3842.058194,0.0305
3840.12945,0.030723
3838.200706,0.030783
3836.271962,0.03072
3834.343218,0.030817
3832.414474,0.030887
3830.48573,0.030727
3828.556986,0.030555
3826.628242,0.030503
3824.699497,0.030483
3822.770753,0.030527
3820.842009,0.030646
3818.913265,0.030741
3816.984521,0.0308
3815.055777,0.030774
3813.127033,0.030657
3811.198289,0.030559
3809.269545,0.030511
3807.340801,0.030515
3805.412057,0.030578
3803.483313,0.03068
3801.554569,0.030739
3799.625825,0.030651
3797.69708,0.030478
3795.768336,0.030399
3793.839592,0.030406
3791.910848,0.030323
3789.982104,0.030134
3788.05336,0.030057
3786.124616,0.030223
3784.195872,0.030356
3782.267128,0.030232
3780.338384,0.030146
3778.40964,0.030308
3776.480896,0.03046
3774.552152,0.03041
3772.623408,0.030303
3770.694663,0.03027
3768.765919,0.03021
3766.837175,0.030095
3764.908431,0.03004
3762.979687,0.030023
3761.050943,0.029972
3759.122199,0.029899
3757.193455,0.029863
3755.264711,0.030036
3753.335967,0.030398
3751.407223,0.030508
3749.478479,0.030256
3747.549735,0.03007
3745.62099,0.030078
3743.692246,0.030028
3741.763502,0.029867
3739.834758,0.029834
3737.906014,0.029911
3735.97727,0.029922
3734.048526,0.029951
3732.119782,0.029957
3730.191038,0.029795
3728.262294,0.029695
3726.33355,0.0298
3724.404806,0.029892
3722.476062,0.029846
3720.547318,0.029653
3718.618573,0.029399
3716.689829,0.029344
3714.761085,0.029511
3712.832341,0.029672
3710.903597,0.029715
3708.974853,0.029692
3707.046109,0.029661
3705.117365,0.029547
3703.188621,0.029311
3701.259877,0.029182
3699.331133,0.029324
3697.402389,0.029505
3695.473645,0.029549
3693.5449,0.029564
3691.616156,0.029568
3689.687412,0.029522
3687.758668,0.029462
3685.829924,0.029391
3683.90118,0.029354
3681.972436,0.029376
3680.043692,0.029432
3678.114948,0.029507
3676.186204,0.029516
3674.25746,0.029451
3672.328716,0.029431
3670.399972,0.02948
3668.471228,0.02959
3666.542483,0.029758
3664.613739,0.029866
3662.684995,0.029818
3660.756251,0.029713
3658.827507,0.029647
3656.898763,0.029592
3654.970019,0.029525
3653.041275,0.029531
3651.112531,0.029678
3649.183787,0.02985
3647.255043,0.02989
3645.326299,0.029886
3643.397555,0.03
3641.468811,0.030142
3639.540066,0.030087
3637.611322,0.029979
3635.682578,0.030179
3633.753834,0.030554
3631.82509,0.030733
3629.896346,0.030722
3627.967602,0.030665
3626.038858,0.030596
3624.110114,0.030556
3622.18137,0.030652
3620.252626,0.030874
3618.323882,0.031039
3616.395138,0.031104
3614.466393,0.031137
3612.537649,0.031136
3610.608905,0.031127
3608.680161,0.03119
3606.751417,0.031328
3604.822673,0.031385
3602.893929,0.031399
3600.965185,0.031575
3599.036441,0.031748
3597.107697,0.03172
3595.178953,0.031705
3593.250209,0.031904
3591.321465,0.032129
3589.392721,0.032217
3587.463976,0.032315
3585.535232,0.032419
3583.606488,0.032464
3581.677744,0.032619
3579.749,0.032844
3577.820256,0.03294
3575.891512,0.032984
3573.962768,0.033153
3572.034024,0.033435
3570.10528,0.033712
3568.176536,0.033923
3566.247792,0.03404
3564.319048,0.034101
3562.390304,0.034213
3560.461559,0.034343
3558.532815,0.03438
3556.604071,0.034365
3554.675327,0.034416
3552.746583,0.034608
3550.817839,0.034828
3548.889095,0.034788
3546.960351,0.034535
3545.031607,0.034511
3543.102863,0.034773
3541.174119,0.034963
3539.245375,0.035052
3537.316631,0.035239
3535.387886,0.035507
3533.459142,0.035651
3531.530398,0.035533
3529.601654,0.035364
3527.67291,0.035447
3525.744166,0.035711
3523.815422,0.035935
3521.886678,0.036033
3519.957934,0.036025
3518.02919,0.03606
3516.100446,0.036182
3514.171702,0.036232
3512.242958,0.036281
3510.314214,0.036474
3508.385469,0.036655
3506.456725,0.036767
3504.527981,0.036902
3502.599237,0.036948
3500.670493,0.036898
3498.741749,0.036988
3496.813005,0.037256
3494.884261,0.037442
3492.955517,0.037453
3491.026773,0.037538
3489.098029,0.0378
3487.169285,0.037992
3485.240541,0.037965
3483.311796,0.037955
3481.383052,0.038181
3479.454308,0.038448
3477.525564,0.038546
3475.59682,0.038622
3473.668076,0.038829
3471.739332,0.039107
3469.810588,0.039365
3467.881844,0.039556
3465.9531,0.039713
3464.024356,0.039832
3462.095612,0.03978
3460.166868,0.039668
3458.238124,0.039727
3456.309379,0.039926
3454.380635,0.040142
3452.451891,0.04025
3450.523147,0.040267
3448.594403,0.040323
3446.665659,0.040456
3444.736915,0.04067
3442.808171,0.040827
3440.879427,0.040778
3438.950683,0.040675
3437.021939,0.040703
3435.093195,0.040805
3433.164451,0.040896
3431.235707,0.041023
3429.306962,0.04123
3427.378218,0.041522
3425.449474,0.041813
3423.52073,0.041987
3421.591986,0.04203
3419.663242,0.041985
3417.734498,0.04193
3415.805754,0.041876
3413.87701,0.041864
3411.948266,0.041958
3410.019522,0.042067
3408.090778,0.042113
3406.162034,0.042126
3404.233289,0.042139
3402.304545,0.042147
3400.375801,0.042229
3398.447057,0.042471
3396.518313,0.042727
3394.589569,0.042845
3392.660825,0.042867
3390.732081,0.042861
3388.803337,0.042871
3386.874593,0.042992
3384.945849,0.043177
3383.017105,0.04324
3381.088361,0.043211
3379.159617,0.043177
3377.230872,0.043144
3375.302128,0.043174
3373.373384,0.043237
3371.44464,0.043279
3369.515896,0.043336
3367.587152,0.043396
3365.658408,0.043395
3363.729664,0.043401
3361.80092,0.043482
3359.872176,0.043499
3357.943432,0.043516
3356.014688,0.04372
3354.085944,0.043856
3352.1572,0.043704
3350.228455,0.043533
3348.299711,0.043609
3346.370967,0.04382
3344.442223,0.043961
3342.513479,0.043981
3340.584735,0.043901
3338.655991,0.043887
3336.727247,0.044083
3334.798503,0.044356
3332.869759,0.044506
3330.941015,0.044466
3329.012271,0.044373
3327.083527,0.044434
3325.154782,0.044586
3323.226038,0.044631
3321.297294,0.044525
3319.36855,0.044393
3317.439806,0.044358
3315.511062,0.044363
3313.582318,0.04436
3311.653574,0.044414
3309.72483,0.04446
3307.796086,0.044426
3305.867342,0.044435
3303.938598,0.044568
3302.009854,0.044697
3300.08111,0.044721
3298.152365,0.04474
3296.223621,0.0448
3294.294877,0.044771
3292.366133,0.04466
3290.437389,0.044632
3288.508645,0.0447
3286.579901,0.04472
3284.651157,0.044621
3282.722413,0.044512
3280.793669,0.044522
3278.864925,0.044567
3276.936181,0.044486
3275.007437,0.044353
3273.078692,0.044305
3271.149948,0.044328
3269.221204,0.044385
3267.29246,0.044437
3265.363716,0.04438
3263.434972,0.044227
3261.506228,0.044095
3259.577484,0.043958
3257.64874,0.043747
3255.719996,0.043505
3253.791252,0.04338
3251.862508,0.043498
3249.933764,0.043678
3248.00502,0.043707
3246.076275,0.043665
3244.147531,0.043587
3242.218787,0.043429
3240.290043,0.043282
3238.361299,0.04321
3236.432555,0.043148
3234.503811,0.043056
3232.575067,0.042953
3230.646323,0.042851
3228.717579,0.042797
3226.788835,0.042767
3224.860091,0.042722
3222.931347,0.042754
3221.002603,0.042792
3219.073858,0.042659
3217.145114,0.042462
3215.21637,0.042336
3213.287626,0.042209
3211.358882,0.042113
3209.430138,0.042109
3207.501394,0.042043
3205.57265,0.041931
3203.643906,0.041938
3201.715162,0.041928
3199.786418,0.041776
3197.857674,0.041544
3195.92893,0.041325
3194.000185,0.041261
3192.071441,0.041362
3190.142697,0.041492
3188.213953,0.041529
3186.285209,0.041399
3184.356465,0.041194
3182.427721,0.041079
3180.498977,0.041038
3178.570233,0.040937
3176.641489,0.040764
3174.712745,0.040663
3172.784001,0.040699
3170.855257,0.040717
3168.926513,0.040659
3166.997768,0.040634
3165.069024,0.040625
3163.14028,0.040604
3161.211536,0.04058
3159.282792,0.040455
3157.354048,0.040198
3155.425304,0.039957
3153.49656,0.039866
3151.567816,0.039869
3149.639072,0.039787
3147.710328,0.039568
3145.781584,0.039388
3143.85284,0.039357
3141.924096,0.039293
3139.995351,0.039148
3138.066607,0.039102
3136.137863,0.039128
3134.209119,0.039097
3132.280375,0.039045
3130.351631,0.03906
3128.422887,0.039106
3126.494143,0.039105
3124.565399,0.038999
3122.636655,0.038797
3120.707911,0.038649
3118.779167,0.038611
3116.850423,0.038574
3114.921678,0.0385
3112.992934,0.038445
3111.06419,0.038421
3109.135446,0.038373
3107.206702,0.038307
3105.277958,0.038306
3103.349214,0.038379
3101.42047,0.038407
3099.491726,0.038323
3097.562982,0.038177
3095.634238,0.03801
3093.705494,0.037909
3091.77675,0.037952
3089.848006,0.038033
3087.919261,0.038081
3085.990517,0.03814
3084.061773,0.038152
3082.133029,0.038042
3080.204285,0.037903
3078.275541,0.037898
3076.346797,0.038065
3074.418053,0.038259
3072.489309,0.038374
3070.560565,0.038436
3068.631821,0.038418
3066.703077,0.038342
3064.774333,0.038356
3062.845589,0.038439
3060.916844,0.03844
3058.9881,0.038361
3057.059356,0.038264
3055.130612,0.038175
3053.201868,0.038154
3051.273124,0.038159
3049.34438,0.038063
3047.415636,0.037933
3045.486892,0.037927
3043.558148,0.038029
3041.629404,0.038151
3039.70066,0.038169
3037.771916,0.038022
3035.843171,0.037889
3033.914427,0.037877
3031.985683,0.037846
3030.056939,0.037747
3028.128195,0.037602
3026.199451,0.037416
3024.270707,0.037245
3022.341963,0.037102
3020.413219,0.037014
3018.484475,0.037037
3016.555731,0.037065
3014.626987,0.037018
3012.698243,0.036968
3010.769499,0.036931
3008.840754,0.036869
3006.91201,0.036811
3004.983266,0.036765
3003.054522,0.036719
3001.125778,0.036767
2999.197034,0.036939
2997.26829,0.037079
2995.339546,0.03706
2993.410802,0.036955
2991.482058,0.037001
2989.553314,0.037337
2987.62457,0.037814
2985.695826,0.038319
2983.767081,0.038869
2981.838337,0.039415
2979.909593,0.03995
2977.980849,0.040581
2976.052105,0.041338
2974.123361,0.042167
2972.194617,0.043095
2970.265873,0.044124
2968.337129,0.045089
2966.408385,0.045865
2964.479641,0.046492
2962.550897,0.047049
2960.622153,0.047455
2958.693409,0.047581
2956.764664,0.047561
2954.83592,0.047545
2952.907176,0.047424
2950.978432,0.047165
2949.049688,0.046932
2947.120944,0.046922
2945.1922,0.047201
2943.263456,0.047687
2941.334712,0.048322
2939.405968,0.049071
2937.477224,0.049907
2935.54848,0.050888
2933.619736,0.051958
2931.690992,0.05293
2929.762247,0.05383
2927.833503,0.054812
2925.904759,0.055713
2923.976015,0.05625
2922.047271,0.056431
2920.118527,0.056292
2918.189783,0.055748
2916.261039,0.054847
2914.332295,0.053765
2912.403551,0.052646
2910.474807,0.051605
2908.546063,0.050735
2906.617319,0.050031
2904.688574,0.049444
2902.75983,0.048916
2900.831086,0.048314
2898.902342,0.047687
2896.973598,0.047305
2895.044854,0.04716
2893.11611,0.046974
2891.187366,0.046701
2889.258622,0.046532
2887.329878,0.046497
2885.401134,0.046431
2883.47239,0.046305
2881.543646,0.046274
2879.614902,0.046377
2877.686157,0.04655
2875.757413,0.046835
2873.828669,0.047239
2871.899925,0.047617
2869.971181,0.047855
2868.042437,0.047943
2866.113693,0.047869
2864.184949,0.047696
2862.256205,0.047614
2860.327461,0.047798
2858.398717,0.04829
2856.469973,0.048898
2854.541229,0.049361
2852.612485,0.049563
2850.68374,0.04938
2848.754996,0.048684
2846.826252,0.047562
2844.897508,0.04632
2842.968764,0.045215
2841.04002,0.044287
2839.111276,0.043536
2837.182532,0.042953
2835.253788,0.042474
2833.325044,0.042101
2831.3963,0.041815
2829.467556,0.041549
2827.538812,0.041347
2825.610067,0.041241
2823.681323,0.041122
2821.752579,0.040936
2819.823835,0.040768
2817.895091,0.040622
2815.966347,0.040429
2814.037603,0.040212
2812.108859,0.040022
2810.180115,0.03986
2808.251371,0.039705
2806.322627,0.03957
2804.393883,0.039493
2802.465139,0.039472
2800.536395,0.03948
2798.60765,0.039455
2796.678906,0.039334
2794.750162,0.039137
2792.821418,0.038973
2790.892674,0.038915
2788.96393,0.038909
2787.035186,0.038847
2785.106442,0.038712
2783.177698,0.038608
2781.248954,0.038603
2779.32021,0.038616
2777.391466,0.038524
2775.462722,0.038335
2773.533977,0.038219
2771.605233,0.038235
2769.676489,0.038217
2767.747745,0.038089
2765.819001,0.037932
2763.890257,0.037781
2761.961513,0.03769
2760.032769,0.037755
2758.104025,0.037879
2756.175281,0.037938
2754.246537,0.037958
2752.317793,0.037929
2750.389049,0.037818
2748.460305,0.037691
2746.53156,0.037641
2744.602816,0.037663
2742.674072,0.037645
2740.745328,0.037569
2738.816584,0.037545
2736.88784,0.037609
2734.959096,0.037692
2733.030352,0.037687
2731.101608,0.037591
2729.172864,0.03751
2727.24412,0.037464
2725.315376,0.037384
2723.386632,0.037315
2721.457888,0.037317
2719.529143,0.0373
2717.600399,0.03723
2715.671655,0.037185
2713.742911,0.037165
2711.814167,0.037104
2709.885423,0.037046
2707.956679,0.037094
2706.027935,0.037201
2704.099191,0.037199
2702.170447,0.037035
2700.241703,0.036851
2698.312959,0.036784
2696.384215,0.036806
2694.45547,0.036814
2692.526726,0.036793
2690.597982,0.036786
2688.669238,0.036779
2686.740494,0.036785
2684.81175,0.036795
2682.883006,0.036732
2680.954262,0.036633
2679.025518,0.036576
2677.096774,0.036528
2675.16803,0.036492
2673.239286,0.036549
2671.310542,0.036642
2669.381798,0.036656
2667.453053,0.036617
2665.524309,0.036538
2663.595565,0.036395
2661.666821,0.036292
2659.738077,0.0363
2657.809333,0.036335
2655.880589,0.036295
2653.951845,0.036189
2652.023101,0.036085
2650.094357,0.035958
2648.165613,0.035771
2646.236869,0.035577
2644.308125,0.035396
2642.379381,0.035236
2640.450636,0.035142
2638.521892,0.035075
2636.593148,0.034971
2634.664404,0.034834
2632.73566,0.034615
2630.806916,0.034313
2628.878172,0.0341
2626.949428,0.034044
2625.020684,0.034026
2623.09194,0.033999
2621.163196,0.033975
2619.234452,0.033891
2617.305708,0.033737
2615.376963,0.033606
2613.448219,0.033504
2611.519475,0.033346
2609.590731,0.033141
2607.661987,0.032944
2605.733243,0.032712
2603.804499,0.032425
2601.875755,0.032273
2599.947011,0.032391
2598.018267,0.032539
2596.089523,0.032483
2594.160779,0.032317
2592.232035,0.032138
2590.303291,0.031949
2588.374546,0.031796
2586.445802,0.031645
2584.517058,0.031458
2582.588314,0.031374
2580.65957,0.031471
2578.730826,0.031601
2576.802082,0.031639
2574.873338,0.031559
2572.944594,0.031385
2571.01585,0.031233
2569.087106,0.031161
2567.158362,0.031178
2565.229618,0.03122
2563.300874,0.031125
2561.372129,0.030994
2559.443385,0.031004
2557.514641,0.03102
2555.585897,0.030903
2553.657153,0.030728
2551.728409,0.03059
2549.799665,0.030489
2547.870921,0.030505
2545.942177,0.030706
2544.013433,0.030807
2542.084689,0.030667
2540.155945,0.030592
2538.227201,0.030655
2536.298456,0.030671
2534.369712,0.030626
2532.440968,0.030519
2530.512224,0.030354
2528.58348,0.030177
2526.654736,0.03003
2524.725992,0.030074
2522.797248,0.030322
2520.868504,0.030469
2518.93976,0.030381
2517.011016,0.030259
2515.082272,0.030272
2513.153528,0.030348
2511.224784,0.030332
2509.296039,0.030216
2507.367295,0.030079
2505.438551,0.029963
2503.509807,0.029894
2501.581063,0.029846
2499.652319,0.02974
2497.723575,0.02965
2495.794831,0.029732
2493.866087,0.029835
2491.937343,0.029724
2490.008599,0.029555
2488.079855,0.029585
2486.151111,0.02977
2484.222366,0.029848
2482.293622,0.029706
2480.364878,0.029539
2478.436134,0.02952
2476.50739,0.029607
2474.578646,0.029679
2472.649902,0.029672
2470.721158,0.029644
2468.792414,0.029721
2466.86367,0.029904
2464.934926,0.029911
2463.006182,0.029592
2461.077438,0.029334
2459.148694,0.029459
2457.219949,0.029722
2455.291205,0.02983
2453.362461,0.029745
2451.433717,0.029536
2449.504973,0.029353
2447.576229,0.029238
2445.647485,0.029126
2443.718741,0.029077
2441.789997,0.029107
2439.861253,0.029091
2437.932509,0.029018
2436.003765,0.028991
2434.075021,0.029028
2432.146277,0.029123
2430.217532,0.029242
2428.288788,0.029187
2426.360044,0.02898
2424.4313,0.02894
2422.502556,0.029096
2420.573812,0.029185
2418.645068,0.02907
2416.716324,0.028892
2414.78758,0.02888
2412.858836,0.029058
2410.930092,0.029336
2409.001348,0.029553
2407.072604,0.029526
2405.143859,0.029377
2403.215115,0.029322
2401.286371,0.029304
2399.357627,0.029257
2397.428883,0.029309
2395.500139,0.029442
2393.571395,0.029497
2391.642651,0.02953
2389.713907,0.029629
2387.785163,0.029667
2385.856419,0.029621
2383.927675,0.029678
2381.998931,0.029867
2380.070187,0.030073
2378.141442,0.030277
2376.212698,0.030493
2374.283954,0.030778
2372.35521,0.031157
2370.426466,0.031495
2368.497722,0.03172
2366.568978,0.031928
2364.640234,0.032171
2362.71149,0.032352
2360.782746,0.032414
2358.854002,0.032422
2356.925258,0.032341
2354.996514,0.032113
2353.06777,0.031838
2351.139025,0.031622
2349.210281,0.031547
2347.281537,0.031673
2345.352793,0.031919
2343.424049,0.032153
2341.495305,0.0323
2339.566561,0.03237
2337.637817,0.032431
2335.709073,0.032486
2333.780329,0.032489
2331.851585,0.032424
2329.922841,0.032347
2327.994097,0.032419
2326.065352,0.032639
2324.136608,0.032632
2322.207864,0.032119
2320.27912,0.03136
2318.350376,0.030804
2316.421632,0.030515
2314.492888,0.030184
2312.564144,0.029763
2310.6354,0.029484
2308.706656,0.029314
2306.777912,0.029126
2304.849168,0.028886
2302.920424,0.028568
2300.99168,0.028241
2299.062935,0.028022
2297.134191,0.027961
2295.205447,0.028021
2293.276703,0.028039
2291.347959,0.02779
2289.419215,0.027288
2287.490471,0.02682
2285.561727,0.026409
2283.632983,0.02584
2281.704239,0.025214
2279.775495,0.024758
2277.846751,0.024471
2275.918007,0.024304
2273.989262,0.02418
2272.060518,0.024037
2270.131774,0.023819
2268.20303,0.023371
2266.274286,0.022717
2264.345542,0.022143
2262.416798,0.021907
2260.488054,0.0219
2258.55931,0.021686
2256.630566,0.021069
2254.701822,0.020301
2252.773078,0.019785
2250.844334,0.019724
2248.91559,0.019911
2246.986845,0.019928
2245.058101,0.019702
2243.129357,0.01943
2241.200613,0.019176
2239.271869,0.019088
2237.343125,0.019212
2235.414381,0.019201
2233.485637,0.018901
2231.556893,0.018437
2229.628149,0.017956
2227.699405,0.017755
2225.770661,0.017745
2223.841917,0.01751
2221.913173,0.017114
2219.984428,0.016696
2218.055684,0.016297
2216.12694,0.016042
2214.198196,0.015745
2212.269452,0.015409
2210.340708,0.015271
2208.411964,0.015097
2206.48322,0.014842
2204.554476,0.014774
2202.625732,0.014702
2200.696988,0.014614
2198.768244,0.014802
2196.8395,0.014995
2194.910755,0.014838
2192.982011,0.014286
2191.053267,0.013458
2189.124523,0.012959
2187.195779,0.013182
2185.267035,0.01358
2183.338291,0.013633
2181.409547,0.013316
2179.480803,0.012539
2177.552059,0.011519
2175.623315,0.010954
2173.694571,0.011063
2171.765827,0.011439
2169.837083,0.011591
2167.908338,0.011208
2165.979594,0.010531
2164.05085,0.010177
2162.122106,0.009974
2160.193362,0.009178
2158.264618,0.008312
2156.335874,0.008601
2154.40713,0.009567
2152.478386,0.010074
2150.549642,0.0104
2148.620898,0.010987
2146.692154,0.011363
2144.76341,0.011574
2142.834666,0.012274
2140.905921,0.013488
2138.977177,0.014563
2137.048433,0.015114
2135.119689,0.015491
2133.190945,0.016048
2131.262201,0.016781
2129.333457,0.017491
2127.404713,0.017977
2125.475969,0.018434
2123.547225,0.019037
2121.618481,0.019458
2119.689737,0.019432
2117.760993,0.01927
2115.832248,0.019413
2113.903504,0.019633
2111.97476,0.01941
2110.046016,0.018949
2108.117272,0.018796
2106.188528,0.018868
2104.259784,0.018867
2102.33104,0.018952
2100.402296,0.019082
2098.473552,0.018868
2096.544808,0.018362
2094.616064,0.017963
2092.68732,0.017975
2090.758576,0.018347
2088.829831,0.018707
2086.901087,0.018859
2084.972343,0.018886
2083.043599,0.018872
2081.114855,0.018888
2079.186111,0.018908
2077.257367,0.018514
2075.328623,0.017472
2073.399879,0.016388
2071.471135,0.015942
2069.542391,0.015961
2067.613647,0.015742
2065.684903,0.015273
2063.756158,0.015097
2061.827414,0.014941
2059.89867,0.014488
2057.969926,0.014324
2056.041182,0.014595
2054.112438,0.014665
2052.183694,0.014169
2050.25495,0.013239
2048.326206,0.012218
2046.397462,0.011309
2044.468718,0.01056
2042.539974,0.01026
2040.61123,0.010374
2038.682486,0.010282
2036.753741,0.00978
2034.824997,0.008985
2032.896253,0.008086
2030.967509,0.0077
2029.038765,0.007983
2027.110021,0.008417
2025.181277,0.008654
2023.252533,0.008568
2021.323789,0.008355
2019.395045,0.008423
2017.466301,0.008724
2015.537557,0.008936
2013.608813,0.009046
2011.680069,0.009092
2009.751324,0.009004
2007.82258,0.008952
2005.893836,0.009181
2003.965092,0.009676
2002.036348,0.010275
2000.107604,0.010735
1998.17886,0.010838
1996.250116,0.010683
1994.321372,0.010416
1992.392628,0.010107
1990.463884,0.010029
1988.53514,0.010239
1986.606396,0.010378
1984.677651,0.010265
1982.748907,0.009939
1980.820163,0.009401
1978.891419,0.008949
1976.962675,0.008946
1975.033931,0.008891
1973.105187,0.00826
1971.176443,0.007773
1969.247699,0.008263
1967.318955,0.009404
1965.390211,0.010455
1963.461467,0.011075
1961.532723,0.011285
1959.603979,0.011515
1957.675234,0.012016
1955.74649,0.012676
1953.817746,0.013389
1951.889002,0.013816
1949.960258,0.013904
1948.031514,0.013978
1946.10277,0.014201
1944.174026,0.014683
1942.245282,0.015066
1940.316538,0.015178
1938.387794,0.015614
1936.45905,0.016278
1934.530306,0.016497
1932.601562,0.016377
1930.672817,0.0165
1928.744073,0.017006
1926.815329,0.017558
1924.886585,0.017828
1922.957841,0.017886
1921.029097,0.018132
1919.100353,0.01861
1917.171609,0.018898
1915.242865,0.018894
1913.314121,0.018928
1911.385377,0.019161
1909.456633,0.019393
1907.527889,0.019582
1905.599144,0.01985
1903.6704,0.02002
1901.741656,0.020058
1899.812912,0.02018
1897.884168,0.020321
1895.955424,0.020389
1894.02668,0.020565
1892.097936,0.02097
1890.169192,0.021319
1888.240448,0.021274
1886.311704,0.021077
1884.38296,0.021209
1882.454216,0.021634
1880.525472,0.021936
1878.596727,0.021947
1876.667983,0.021913
1874.739239,0.022015
1872.810495,0.022093
1870.881751,0.022147
1868.953007,0.022298
1867.024263,0.022377
1865.095519,0.022302
1863.166775,0.022262
1861.238031,0.022397
1859.309287,0.022529
1857.380543,0.022454000000000002
1855.451799,0.022368
1853.523055,0.022435
1851.59431,0.022496
1849.665566,0.022455
1847.736822,0.022497
1845.808078,0.022798
1843.879334,0.0231
1841.95059,0.02304
1840.021846,0.022773
1838.093102,0.022698
1836.164358,0.022802
1834.235614,0.022862
1832.30687,0.022937
1830.378126,0.023105
1828.449382,0.023279
1826.520637,0.023409
1824.591893,0.023518
1822.663149,0.023619
1820.734405,0.023599
1818.805661,0.02345
1816.876917,0.023413
1814.948173,0.023559
1813.019429,0.023747
1811.090685,0.023904
1809.161941,0.024002
1807.233197,0.024061
1805.304453,0.024124
1803.375709,0.024177
1801.446965,0.024216
1799.51822,0.024262
1797.589476,0.024289
1795.660732,0.024254
1793.731988,0.024277
1791.803244,0.024448
1789.8745,0.024586
1787.945756,0.024634
1786.017012,0.024717
1784.088268,0.024871
1782.159524,0.025108
1780.23078,0.02538
1778.302036,0.02561
1776.373292,0.025872
1774.444547,0.026291
1772.515803,0.02688
1770.587059,0.027571
1768.658315,0.028248
1766.729571,0.028845
1764.800827,0.029462
1762.872083,0.030232
1760.943339,0.031169
1759.014595,0.032239
1757.085851,0.033376
1755.157107,0.034439
1753.228363,0.035463
1751.299619,0.036613
1749.370875,0.037819
1747.44213,0.03892
1745.513386,0.03989
1743.584642,0.040731
1741.655898,0.04143
1739.727154,0.041961
1737.79841,0.042323
1735.869666,0.042556
1733.940922,0.042588
1732.012178,0.042313
1730.083434,0.041877
1728.15469,0.041395
1726.225946,0.040822
1724.297202,0.040187
1722.368458,0.039531
1720.439713,0.038914
1718.510969,0.038428
1716.582225,0.037999
1714.653481,0.037536
1712.724737,0.037095
1710.795993,0.036707
1708.867249,0.036413
1706.938505,0.036234
1705.009761,0.036093
1703.081017,0.036039
1701.152273,0.036151
1699.223529,0.036294
1697.294785,0.036393
1695.36604,0.036476
1693.437296,0.036528
1691.508552,0.036643
1689.579808,0.036907
1687.651064,0.037293
1685.72232,0.037718
1683.793576,0.038002
1681.864832,0.038138
1679.936088,0.038393
1678.007344,0.038816
1676.0786,0.039276
1674.149856,0.039732
1672.221112,0.040196
1670.292368,0.040681
1668.363623,0.041153
1666.434879,0.041601
1664.506135,0.042135
1662.577391,0.042803
1660.648647,0.043528
1658.719903,0.04427
1656.791159,0.045028
1654.862415,0.045834
1652.933671,0.046584
1651.004927,0.047002
1649.076183,0.047186
1647.147439,0.04733
1645.218695,0.047291
1643.289951,0.046999
1641.361206,0.046699
1639.432462,0.046542
1637.503718,0.0464
1635.574974,0.046081
1633.64623,0.04559
1631.717486,0.045127
1629.788742,0.044808
1627.859998,0.044596
1625.931254,0.044453
1624.00251,0.044376
1622.073766,0.044407
1620.145022,0.044726
1618.216278,0.045569
1616.287533,0.047006
1614.358789,0.048909
1612.430045,0.051248
1610.501301,0.05393
1608.572557,0.056448
1606.643813,0.058097
1604.715069,0.05837
1602.786325,0.057282
1600.857581,0.055372
1598.928837,0.053279
1597.000093,0.051402
1595.071349,0.049883
1593.142605,0.048725
1591.213861,0.047978
1589.285116,0.047833
1587.356372,0.048418
1585.427628,0.049511
1583.498884,0.050565
1581.57014,0.051037
1579.641396,0.050729
1577.712652,0.049782
1575.783908,0.048416
1573.855164,0.04694
1571.92642,0.045665
1569.997676,0.044637
1568.068932,0.043734
1566.140188,0.042939
1564.211443,0.042339
1562.282699,0.041991
1560.353955,0.041851
1558.425211,0.041676
1556.496467,0.041351
1554.567723,0.041061
1552.638979,0.040869
1550.710235,0.040723
1548.781491,0.040647
1546.852747,0.040752
1544.924003,0.041122
1542.995259,0.041719
1541.066515,0.042408
1539.137771,0.042919
1537.209026,0.042995
1535.280282,0.04263
1533.351538,0.041873
1531.422794,0.040843
1529.49405,0.039821
1527.565306,0.038974
1525.636562,0.038379
1523.707818,0.038322
1521.779074,0.039296
1519.85033,0.04193
1517.921586,0.04708
1515.992842,0.055443
1514.064098,0.066574
1512.135354,0.078688
1510.206609,0.08923
1508.277865,0.096023
1506.349121,0.097827
1504.420377,0.094696
1502.491633,0.088448
1500.562889,0.081026
1498.634145,0.073808
1496.705401,0.067564
1494.776657,0.062585
1492.847913,0.058819
1490.919169,0.05589
1488.990425,0.053458
1487.061681,0.051381
1485.132936,0.049647
1483.204192,0.048403
1481.275448,0.047897
1479.346704,0.048333
1477.41796,0.049854
1475.489216,0.052517
1473.560472,0.056138
1471.631728,0.060105
1469.702984,0.0636
1467.77424,0.066194
1465.845496,0.067856
1463.916752,0.068781
1461.988008,0.069364
1460.059264,0.070003
1458.130519,0.070869
1456.201775,0.071739
1454.273031,0.072365
1452.344287,0.072872
1450.415543,0.073367
1448.486799,0.073635
1446.558055,0.073311
1444.629311,0.072247
1442.700567,0.070604
1440.771823,0.068617
1438.843079,0.066476
1436.914335,0.064296
1434.985591,0.062228
1433.056847,0.060444
1431.128102,0.058934
1429.199358,0.057632
1427.270614,0.056579
1425.34187,0.055792
1423.413126,0.055236
1421.484382,0.054932
1419.555638,0.054867
1417.626894,0.054906
1415.69815,0.054925
1413.769406,0.054827
1411.840662,0.054459
1409.911918,0.053786
1407.983174,0.052953
1406.054429,0.052091
1404.125685,0.051299
1402.196941,0.050707
1400.268197,0.050419
1398.339453,0.05058
1396.410709,0.051344
1394.481965,0.052587
1392.553221,0.053929
1390.624477,0.055123
1388.695733,0.056199
1386.766989,0.057255
1384.838245,0.058096
1382.909501,0.058259
1380.980757,0.05753
1379.052012,0.056203
1377.123268,0.054743
1375.194524,0.053454
1373.26578,0.052482
1371.337036,0.051905
1369.408292,0.051799
1367.479548,0.052327
1365.550804,0.053625
1363.62206,0.055357
1361.693316,0.056474
1359.764572,0.055956
1357.835828,0.053905
1355.907084,0.051402
1353.97834,0.049408
1352.049595,0.048112
1350.120851,0.047249
1348.192107,0.046652
1346.263363,0.046254
1344.334619,0.045946
1342.405875,0.045692
1340.477131,0.045521
1338.548387,0.045416
1336.619643,0.045373
1334.690899,0.045397
1332.762155,0.045445
1330.833411,0.045482
1328.904667,0.045491
1326.975922,0.045446
1325.047178,0.04537
1323.118434,0.045348
1321.18969,0.045425
1319.260946,0.045617
1317.332202,0.046006
1315.403458,0.046687
1313.474714,0.047605
1311.54597,0.048588
1309.617226,0.049556
1307.688482,0.050559
1305.759738,0.05168
1303.830994,0.052976
1301.90225,0.054383
1299.973505,0.055692
1298.044761,0.056722
1296.116017,0.057404
1294.187273,0.05772
1292.258529,0.057665
1290.329785,0.057289
1288.401041,0.0567
1286.472297,0.056015
1284.543553,0.055386
1282.614809,0.055046
1280.686065,0.05523
1278.757321,0.056067
1276.828577,0.057452
1274.899832,0.059047
1272.971088,0.060559
1271.042344,0.061871
1269.1136,0.062948
1267.184856,0.063875
1265.256112,0.064963
1263.327368,0.066701
1261.398624,0.069441
1259.46988,0.073268
1257.541136,0.078151
1255.612392,0.083817
1253.683648,0.089697
1251.754904,0.095284
1249.82616,0.100211
1247.897415,0.104215
1245.968671,0.107298
1244.039927,0.10964
1242.111183,0.111424
1240.182439,0.11284
1238.253695,0.11405
1236.324951,0.115073
1234.396207,0.115807
1232.467463,0.116129
1230.538719,0.11596
1228.609975,0.115303
1226.681231,0.114189
1224.752487,0.112669
1222.823743,0.110858
1220.894998,0.108838
1218.966254,0.10663
1217.03751,0.104238
1215.108766,0.101611
1213.180022,0.098684
1211.251278,0.095423
1209.322534,0.091811
1207.39379,0.087866
1205.465046,0.083629
1203.536302,0.079271
1201.607558,0.075154
1199.678814,0.07165
1197.75007,0.069071
1195.821325,0.067811
1193.892581,0.068339
1191.963837,0.071033
1190.035093,0.07596
1188.106349,0.082788
1186.177605,0.090845
1184.248861,0.099008
1182.320117,0.105633
1180.391373,0.108893
1178.462629,0.107786
1176.533885,0.103087
1174.605141,0.096794
1172.676397,0.090599
1170.747653,0.085157
1168.818908,0.080494
1166.890164,0.076543
1164.96142,0.073288
1163.032676,0.070666
1161.103932,0.068558
1159.175188,0.066958
1157.246444,0.065866
1155.3177,0.065138
1153.388956,0.064677
1151.460212,0.064502
1149.531468,0.064567
1147.602724,0.064708
1145.67398,0.064828
1143.745236,0.064993
1141.816491,0.065295
1139.887747,0.065752
1137.959003,0.066386
1136.030259,0.067234
1134.101515,0.068313
1132.172771,0.069539
1130.244027,0.070716
1128.315283,0.071756
1126.386539,0.072749
1124.457795,0.073811
1122.529051,0.07495
1120.600307,0.07602
1118.671563,0.076877
1116.742818,0.07753
1114.814074,0.078066
1112.88533,0.078603
1110.956586,0.079321
1109.027842,0.08032
1107.099098,0.081411
1105.170354,0.08213
1103.24161,0.08206
1101.312866,0.081231
1099.384122,0.080045
1097.455378,0.078827
1095.526634,0.07769
1093.59789,0.076752
1091.669146,0.076246
1089.740401,0.076374
1087.811657,0.077038
1085.882913,0.077708
1083.954169,0.077768
1082.025425,0.077077
1080.096681,0.07604
1078.167937,0.0752
1076.239193,0.074844
1074.310449,0.074939
1072.381705,0.075376
1070.452961,0.076159
1068.524217,0.077223
1066.595473,0.078264
1064.666728,0.078894
1062.737984,0.078977
1060.80924,0.078836
1058.880496,0.078942
1056.951752,0.079562
1055.023008,0.080878
1053.094264,0.082997
1051.16552,0.085857
1049.236776,0.089263
1047.308032,0.09295
1045.379288,0.096697
1043.450544,0.100279
1041.5218,0.103405
1039.593056,0.10589
1037.664311,0.107651
1035.735567,0.10866
1033.806823,0.108958
1031.878079,0.108611
1029.949335,0.107688
1028.020591,0.106268
1026.091847,0.104501
1024.163103,0.102631
1022.234359,0.100916
1020.305615,0.099645
1018.376871,0.099175
1016.448127,0.099871
1014.519383,0.101928
1012.590639,0.104879
1010.661894,0.107204
1008.73315,0.107457
1006.804406,0.105899
1004.875662,0.103801
1002.946918,0.101861
1001.018174,0.100106
999.08943,0.098424
997.160686,0.0968
995.231942,0.095284
993.303198,0.093901
991.374454,0.092622
989.44571,0.09136
987.516966,0.090064
985.588221,0.088732
983.659477,0.087379
981.730733,0.085997
979.801989,0.084514
977.873245,0.082915
975.944501,0.081353
974.015757,0.07997
972.087013,0.07875
970.158269,0.077649
968.229525,0.076626
966.300781,0.075636
964.372037,0.074755
962.443293,0.074108
960.514549,0.073699
958.585804,0.073485
956.65706,0.073398
954.728316,0.073275
952.799572,0.073103
950.870828,0.073122
948.942084,0.07348
947.01334,0.074075
945.084596,0.074797
943.155852,0.075713
941.227108,0.076841
939.298364,0.077956
937.36962,0.078803
935.440876,0.079264
933.512132,0.079262
931.583387,0.078747
929.654643,0.07777
927.725899,0.076443
925.797155,0.074945
923.868411,0.073509
921.939667,0.072278
920.010923,0.071193
918.082179,0.070112
916.153435,0.069033
914.224691,0.068017
912.295947,0.067023
910.367203,0.066032
908.438459,0.065162
906.509714,0.064509
904.58097,0.064039
902.652226,0.063757
900.723482,0.06366
898.794738,0.063583
896.865994,0.0635
894.93725,0.063585
893.008506,0.063792
891.079762,0.06395
889.151018,0.064157
887.222274,0.064546
885.29353,0.065079
883.364786,0.065855
881.436042,0.066999
879.507297,0.068438
877.578553,0.070079
875.649809,0.071757
873.721065,0.073169
871.792321,0.074022
869.863577,0.073996
867.934833,0.072873
866.006089,0.07085
864.077345,0.068401
862.148601,0.065975
860.219857,0.06392
858.291113,0.062417
856.362369,0.061444
854.433625,0.060946
852.50488,0.0611
850.576136,0.062147
848.647392,0.064021
846.718648,0.066515
844.789904,0.069718
842.86116,0.073877
840.932416,0.079032
839.003672,0.085348
837.074928,0.093187
835.146184,0.102472
833.21744,0.112738
831.288696,0.123292
829.359952,0.132885
827.431207,0.139788
825.502463,0.142329
823.573719,0.139752
821.644975,0.133103
819.716231,0.124894
817.787487,0.117417
815.858743,0.111687
813.929999,0.107918
812.001255,0.105903
810.072511,0.104972
808.143767,0.104387
806.215023,0.103579
804.286279,0.102163
802.357535,0.100042
800.42879,0.097282
798.500046,0.094226
796.571302,0.091355
794.642558,0.088771
792.713814,0.086453
790.78507,0.084479
788.856326,0.082746
786.927582,0.081107
784.998838,0.079623
783.070094,0.078403
781.14135,0.077452
779.212606,0.076769
777.283862,0.076383
775.355117,0.076321
773.426373,0.076581
771.497629,0.077171
769.568885,0.078116
767.640141,0.079267
765.711397,0.080336
763.782653,0.081199
761.853909,0.081775
759.925165,0.081838
757.996421,0.081295
756.067677,0.080378
754.138933,0.079487
752.210189,0.079222
750.281445,0.080125
748.3527,0.081932
746.423956,0.084194
744.495212,0.087946
742.566468,0.094747
740.637724,0.103754
738.70898,0.111444
736.780236,0.114641
734.851492,0.113137
732.922748,0.109269
730.994004,0.105602
729.06526,0.103142
727.136516,0.101302
725.207772,0.099244
723.279028,0.096757
721.350283,0.094127
719.421539,0.091716
717.492795,0.089782
715.564051,0.088443
713.635307,0.087555
711.706563,0.086879
709.777819,0.086326
707.849075,0.085915
705.920331,0.085621
703.991587,0.08537
702.062843,0.085166
700.134099,0.085026
698.205355,0.085075
696.27661,0.085396
694.347866,0.085658
692.419122,0.085669
690.490378,0.08559
688.561634,0.085446
686.63289,0.085241
684.704146,0.08509
682.775402,0.084906
680.846658,0.08452
678.917914,0.084065
676.98917,0.083877
675.060426,0.084188
673.131682,0.084924
671.202938,0.085934
669.274193,0.087083
667.345449,0.088064
665.416705,0.088846
663.487961,0.089693
661.559217,0.090466
659.630473,0.090918
657.701729,0.091054
655.772985,0.090854
653.844241,0.090333
651.915497,0.089842
649.986753,0.08991
648.058009,0.090762
646.129265,0.092107
644.200521,0.09351
642.271776,0.094884
640.343032,0.096116
638.414288,0.096531
636.485544,0.095778
634.5568,0.094646
632.628056,0.093961
630.699312,0.093725
628.770568,0.093577
626.841824,0.093151
624.91308,0.092561
622.984336,0.092484
621.055592,0.092881
619.126848,0.093035
617.198103,0.092842
615.269359,0.092644
613.340615,0.092756
611.411871,0.093216
609.483127,0.09374
607.554383,0.094316
605.625639,0.095048
603.696895,0.095862
601.768151,0.096768
599.839407,0.097814
597.910663,0.099063
595.981919,0.100436
594.053175,0.101687
592.124431,0.103047
590.195686,0.104965
588.266942,0.107154
586.338198,0.10931
584.409454,0.11184
582.48071,0.114826
580.551966,0.11811
578.623222,0.121701
576.694478,0.125199
574.765734,0.128627
572.83699,0.132313
570.908246,0.135431
568.979502,0.137268
567.050758,0.138558
565.122013,0.14018
563.193269,0.142144
561.264525,0.144191
559.335781,0.146369
557.407037,0.148457
555.478293,0.149787
553.549549,0.149988
551.620805,0.148903
549.692061,0.146614
547.763317,0.144036
545.834573,0.141875
543.905829,0.139714
541.977085,0.137338
540.048341,0.135244
538.119596,0.133535
536.190852,0.132069
534.262108,0.130971
532.333364,0.129885
530.40462,0.128301
528.475876,0.126749
526.547132,0.125966
524.618388,0.125629
522.689644,0.125144
520.7609,0.12455
518.832156,0.124096
516.903412,0.123836
514.974668,0.123693
513.045924,0.123501
511.117179,0.123162
509.188435,0.122936
507.259691,0.12307
505.330947,0.123291
503.402203,0.123364
501.473459,0.123454
499.544715,0.123635
497.615971,0.123947
495.687227,0.124567
493.758483,0.12539
491.829739,0.125984
489.900995,0.126278
487.972251,0.126625
486.043506,0.127121
484.114762,0.127682
482.186018,0.128385
480.257274,0.129205
478.32853,0.129806
476.399786,0.129963
474.471042,0.130122
472.542298,0.130859
470.613554,0.131892
468.68481,0.132505
466.756066,0.13263
464.827322,0.132573
462.898578,0.132265
460.969834,0.131748
459.041089,0.131589
457.112345,0.132096
455.183601,0.133088
453.254857,0.13441
451.326113,0.135186
449.397369,0.134249
447.468625,0.132391
445.539881,0.131489
443.611137,0.131922
441.682393,0.13265
439.753649,0.13297
437.824905,0.133007
435.896161,0.132995
433.967417,0.13361
432.038672,0.135147
430.109928,0.135897
428.181184,0.134944
426.25244,0.134363
424.323696,0.135223
422.394952,0.135621
420.466208,0.134922
418.537464,0.134878
416.60872,0.135899
414.679976,0.136817
412.751232,0.137311
410.822488,0.137871
408.893744,0.138395
406.964999,0.137552
405.036255,0.135815
403.107511,0.136493
401.178767,0.139213
399.250023,0.140273
