3996.35772,0.051463
3994.428976,0.051557
3992.500232,0.051595
3990.571488,0.051596
3988.642744,0.051599
3986.714,0.05157
3984.785256,0.051506
3982.856511,0.051498
3980.927767,0.051641
3978.999023,0.051818
3977.070279,0.051877
3975.141535,0.051794
3973.212791,0.051654
3971.284047,0.051608
3969.355303,0.051651
3967.426559,0.051705
3965.497815,0.05175
3963.569071,0.051783
3961.640327,0.051818
3959.711583,0.051822
3957.782839,0.051788
3955.854094,0.051809
3953.92535,0.051959
3951.996606,0.052132
3950.067862,0.052084
3948.139118,0.05186
3946.210374,0.051722
3944.28163,0.051717
3942.352886,0.051767
3940.424142,0.051771
3938.495398,0.051704
3936.566654,0.051749
3934.63791,0.051852
3932.709166,0.051668
3930.780422,0.051341
3928.851677,0.051372
3926.922933,0.051685
3924.994189,0.051757
3923.065445,0.051495
3921.136701,0.051364
3919.207957,0.051519
3917.279213,0.051726
3915.350469,0.051925
3913.421725,0.051923
3911.492981,0.051632
3909.564237,0.051476
3907.635493,0.051546
3905.706749,0.051544
3903.778004,0.051558
3901.84926,0.051811
3899.920516,0.052103
3897.991772,0.052124
3896.063028,0.051965
3894.134284,0.051851
3892.20554,0.051741
3890.276796,0.051589
3888.348052,0.05159
3886.419308,0.051755
3884.490564,0.051721
3882.56182,0.051438
3880.633076,0.051255
3878.704332,0.051267
3876.775587,0.051331
3874.846843,0.051424
3872.918099,0.051651
3870.989355,0.051981
3869.060611,0.052152
3867.131867,0.05203
3865.203123,0.0518
3863.274379,0.051611
3861.345635,0.051406
3859.416891,0.051308
3857.488147,0.051553
3855.559403,0.051919
3853.630659,0.051982
3851.701915,0.051764
3849.77317,0.051527
3847.844426,0.051378
3845.915682,0.051323
3843.986938,0.051355
3842.058194,0.05155
3840.12945,0.051816
3838.200706,0.051863
3836.271962,0.051744
3834.343218,0.051722
3832.414474,0.051645
3830.48573,0.051349
3828.556986,0.051139
3826.628242,0.051185
3824.699497,0.051326
3822.770753,0.051464
3820.842009,0.051512
3818.913265,0.051504
3816.984521,0.05155
3815.055777,0.051528
3813.127033,0.051408
3811.198289,0.05131
3809.269545,0.051243
3807.340801,0.051205
3805.412057,0.051165
3803.483313,0.051048
3801.554569,0.050959
3799.625825,0.051099
3797.69708,0.051352
3795.768336,0.051378
3793.839592,0.051143
3791.910848,0.050948
3789.982104,0.050867
3788.05336,0.05082
3786.124616,0.050887
3784.195872,0.050991
3782.267128,0.051043
3780.338384,0.051168
3778.40964,0.051281
3776.480896,0.051171
3774.552152,0.050943
3772.623408,0.050867
3770.694663,0.050959
3768.765919,0.051017
3766.837175,0.050962
3764.908431,0.050828
3762.979687,0.050658
3761.050943,0.050509
3759.122199,0.050455
3757.193455,0.050522
3755.264711,0.050706
3753.335967,0.050994
3751.407223,0.051197
3749.478479,0.051144
3747.549735,0.050986
3745.62099,0.050846
3743.692246,0.050689
3741.763502,0.050562
3739.834758,0.050522
3737.906014,0.050558
3735.97727,0.050664
3734.048526,0.050742
3732.119782,0.050616
3730.191038,0.050382
3728.262294,0.050361
3726.33355,0.050507
3724.404806,0.050519
3722.476062,0.050398
3720.547318,0.050226
3718.618573,0.050035
3716.689829,0.050015
3714.761085,0.050229
3712.832341,0.050529
3710.903597,0.050725
3708.974853,0.05058
3707.046109,0.05018
3705.117365,0.049875
3703.188621,0.049664
3701.259877,0.04953
3699.331133,0.049704
3697.402389,0.049997
3695.473645,0.050116
3693.5449,0.050172
3691.616156,0.050228
3689.687412,0.050176
3687.758668,0.049968
3685.829924,0.049745
3683.90118,0.04979
3681.972436,0.050071
3680.043692,0.050288
3678.114948,0.05033
3676.186204,0.050156
3674.25746,0.049913
3672.328716,0.04993
3670.399972,0.050113
3668.471228,0.050188
3666.542483,0.050186
3664.613739,0.050168
3662.684995,0.050111
3660.756251,0.050094
3658.827507,0.050105
3656.898763,0.050055
3654.970019,0.050089
3653.041275,0.050331
3651.112531,0.050615
3649.183787,0.050694
3647.255043,0.050554
3645.326299,0.050468
3643.397555,0.05059
3641.468811,0.050823
3639.540066,0.050936
3637.611322,0.050916
3635.682578,0.051073
3633.753834,0.051399
3631.82509,0.051564
3629.896346,0.051509
3627.967602,0.051464
3626.038858,0.051565
3624.110114,0.051678
3622.18137,0.051745
3620.252626,0.051921
3618.323882,0.052236
3616.395138,0.052459
3614.466393,0.052454
3612.537649,0.05243
3610.608905,0.052573
3608.680161,0.052824
3606.751417,0.053003
3604.822673,0.052922
3602.893929,0.052729
3600.965185,0.052815
3599.036441,0.053055
3597.107697,0.053064
3595.178953,0.053069
3593.250209,0.053385
3591.321465,0.053751
3589.392721,0.053935
3587.463976,0.054048
3585.535232,0.054124
3583.606488,0.054194
3581.677744,0.054394
3579.749,0.054585
3577.820256,0.054572
3575.891512,0.054606
3573.962768,0.054905
3572.034024,0.055228
3570.10528,0.055347
3568.176536,0.055346
3566.247792,0.055409
3564.319048,0.055637
3562.390304,0.055945
3560.461559,0.056124
3558.532815,0.056125
3556.604071,0.056104
3554.675327,0.056136
3552.746583,0.056208
3550.817839,0.056405
3548.889095,0.056642
3546.960351,0.056646
3545.031607,0.056504
3543.102863,0.056527
3541.174119,0.056716
3539.245375,0.056945
3537.316631,0.057238
3535.387886,0.057535
3533.459142,0.057631
3531.530398,0.057557
3529.601654,0.057577
3527.67291,0.057782
3525.744166,0.058038
3523.815422,0.058253
3521.886678,0.058437
3519.957934,0.058538
3518.02919,0.058552
3516.100446,0.058599
3514.171702,0.058694
3512.242958,0.058821
3510.314214,0.058962
3508.385469,0.059049
3506.456725,0.059226
3504.527981,0.059657
3502.599237,0.060073
3500.670493,0.060097
3498.741749,0.059891
3496.813005,0.059848
3494.884261,0.059918
3492.955517,0.059974
3491.026773,0.060133
3489.098029,0.060412
3487.169285,0.060704
3485.240541,0.060936
3483.311796,0.061122
3481.383052,0.061277
3479.454308,0.061354
3477.525564,0.061397
3475.59682,0.061521
3473.668076,0.061734
3471.739332,0.061887
3469.810588,0.061909
3467.881844,0.061996
3465.9531,0.062239
3464.024356,0.062405
3462.095612,0.062406
3460.166868,0.062415
3458.238124,0.062439
3456.309379,0.062478
3454.380635,0.062681
3452.451891,0.062936
3450.523147,0.063032
3448.594403,0.062997
3446.665659,0.062982
3444.736915,0.063072
3442.808171,0.063171
3440.879427,0.063219
3438.950683,0.063357
3437.021939,0.063581
3435.093195,0.063681
3433.164451,0.063668
3431.235707,0.063695
3429.306962,0.063826
3427.378218,0.064093
3425.449474,0.064366
3423.52073,0.064447
3421.591986,0.064372
3419.663242,0.064324
3417.734498,0.064386
3415.805754,0.064522
3413.87701,0.064638
3411.948266,0.064647
3410.019522,0.06459
3408.090778,0.064585
3406.162034,0.064661
3404.233289,0.064819
3402.304545,0.064976
3400.375801,0.065014
3398.447057,0.064994
3396.518313,0.065008
3394.589569,0.065091
3392.660825,0.065222
3390.732081,0.065308
3388.803337,0.065349
3386.874593,0.065395
3384.945849,0.065474
3383.017105,0.065541
3381.088361,0.065536
3379.159617,0.065546
3377.230872,0.065612
3375.302128,0.06564
3373.373384,0.065562
3371.44464,0.065481
3369.515896,0.065562
3367.587152,0.065723
3365.658408,0.06575
3363.729664,0.065745
3361.80092,0.065904
3359.872176,0.066017
3357.943432,0.065965
3356.014688,0.065964
3354.085944,0.065983
3352.1572,0.065954
3350.228455,0.065975
3348.299711,0.066032
3346.370967,0.066112
3344.442223,0.066206
3342.513479,0.066269
3340.584735,0.066333
3338.655991,0.066411
3336.727247,0.066424
3334.798503,0.066394
3332.869759,0.066404
3330.941015,0.066443
3329.012271,0.066581
3327.083527,0.066808
3325.154782,0.066924
3323.226038,0.066897
3321.297294,0.066811
3319.36855,0.06668
3317.439806,0.066558
3315.511062,0.066523
3313.582318,0.066549
3311.653574,0.066519
3309.72483,0.066407
3307.796086,0.066315
3305.867342,0.066326
3303.938598,0.066512
3302.009854,0.06681
3300.08111,0.066958
3298.152365,0.066926
3296.223621,0.066854
3294.294877,0.066701
3292.366133,0.06657
3290.437389,0.066685
3288.508645,0.066869
3286.579901,0.066838
3284.651157,0.066738
3282.722413,0.066749
3280.793669,0.066771
3278.864925,0.066735
3276.936181,0.066644
3275.007437,0.066523
3273.078692,0.066481
3271.149948,0.066571
3269.221204,0.066694
3267.29246,0.066696
3265.363716,0.06661
3263.434972,0.066658
3261.506228,0.066756
3259.577484,0.066608
3257.64874,0.066317
3255.719996,0.066115
3253.791252,0.065997
3251.862508,0.06602
3249.933764,0.066172
3248.00502,0.066227
3246.076275,0.066156
3244.147531,0.066109
3242.218787,0.066083
3240.290043,0.066032
3238.361299,0.065982
3236.432555,0.065953
3234.503811,0.065928
3232.575067,0.065832
3230.646323,0.065687
3228.717579,0.065647
3226.788835,0.06566
3224.860091,0.065606
3222.931347,0.065649
3221.002603,0.065776
3219.073858,0.065654
3217.145114,0.065301
3215.21637,0.065052
3213.287626,0.064996
3211.358882,0.065127
3209.430138,0.065371
3207.501394,0.06538
3205.57265,0.065113
3203.643906,0.064897
3201.715162,0.06479
3199.786418,0.064773
3197.857674,0.064831
3195.92893,0.064874
3194.000185,0.064976
3192.071441,0.065042
3190.142697,0.064918
3188.213953,0.064811
3186.285209,0.064791
3184.356465,0.064694
3182.427721,0.064496
3180.498977,0.064227
3178.570233,0.06394
3176.641489,0.063738
3174.712745,0.063682
3172.784001,0.063788
3170.855257,0.063983
3168.926513,0.064138
3166.997768,0.064168
3165.069024,0.064012
3163.14028,0.063712
3161.211536,0.063506
3159.282792,0.0635
3157.354048,0.063486
3155.425304,0.063342
3153.49656,0.063147
3151.567816,0.062967
3149.639072,0.062814
3147.710328,0.062705
3145.781584,0.062645
3143.85284,0.062568
3141.924096,0.062452
3139.995351,0.062425
3138.066607,0.062542
3136.137863,0.062654
3134.209119,0.062627
3132.280375,0.0625
3130.351631,0.062405
3128.422887,0.062393
3126.494143,0.06243
3124.565399,0.062436
3122.636655,0.062326
3120.707911,0.062153
3118.779167,0.061981
3116.850423,0.061806
3114.921678,0.061675
3112.992934,0.061617
3111.06419,0.061634
3109.135446,0.061674
3107.206702,0.061671
3105.277958,0.061705
3103.349214,0.061805
3101.42047,0.061788
3099.491726,0.061556
3097.562982,0.061318
3095.634238,0.061269
3093.705494,0.061298
3091.77675,0.061303
3089.848006,0.061348
3087.919261,0.061426
3085.990517,0.061485
3084.061773,0.0615
3082.133029,0.061432
3080.204285,0.061317
3078.275541,0.061246
3076.346797,0.061232
3074.418053,0.061253
3072.489309,0.061287
3070.560565,0.06128
3068.631821,0.061211
3066.703077,0.061127
3064.774333,0.0611
3062.845589,0.061157
3060.916844,0.061213
3058.9881,0.061178
3057.059356,0.061054
3055.130612,0.060868
3053.201868,0.060691
3051.273124,0.060615
3049.34438,0.060621
3047.415636,0.060652
3045.486892,0.060687
3043.558148,0.060668
3041.629404,0.060597
3039.70066,0.060565
3037.771916,0.060545
3035.843171,0.060455
3033.914427,0.060331
3031.985683,0.060256
3030.056939,0.060214
3028.128195,0.06009
3026.199451,0.059899
3024.270707,0.059822
3022.341963,0.059882
3020.413219,0.059971
3018.484475,0.060051
3016.555731,0.060104
3014.626987,0.060106
3012.698243,0.060067
3010.769499,0.060088
3008.840754,0.060212
3006.91201,0.06028
3004.983266,0.060208
3003.054522,0.060116
3001.125778,0.060134
2999.197034,0.06027
2997.26829,0.060366
2995.339546,0.060332
2993.410802,0.060248
2991.482058,0.060189
2989.553314,0.060225
2987.62457,0.060353
2985.695826,0.060479
2983.767081,0.060634
2981.838337,0.060927
2979.909593,0.061232
2977.980849,0.061385
2976.052105,0.06149
2974.123361,0.061696
2972.194617,0.062022
2970.265873,0.062509
2968.337129,0.063176
2966.408385,0.063879
2964.479641,0.064538
2962.550897,0.065266
2960.622153,0.065998
2958.693409,0.06654
2956.764664,0.066947
2954.83592,0.067264
2952.907176,0.067354
2950.978432,0.067229
2949.049688,0.067083
2947.120944,0.067113
2945.1922,0.06744
2943.263456,0.068035
2941.334712,0.068847
2939.405968,0.069888
2937.477224,0.071132
2935.54848,0.072522
2933.619736,0.073972
2931.690992,0.075393
2929.762247,0.076761
2927.833503,0.078112
2925.904759,0.079355
2923.976015,0.080212
2922.047271,0.0805
2920.118527,0.080176
2918.189783,0.079305
2916.261039,0.078132
2914.332295,0.076925
2912.403551,0.075785
2910.474807,0.074692
2908.546063,0.073704
2906.617319,0.072914
2904.688574,0.072254
2902.75983,0.071623
2900.831086,0.071027
2898.902342,0.070495
2896.973598,0.070004
2895.044854,0.069499
2893.11611,0.069006
2891.187366,0.068591
2889.258622,0.068255
2887.329878,0.067934
2885.401134,0.067503
2883.47239,0.067006
2881.543646,0.06668
2879.614902,0.066576
2877.686157,0.066578
2875.757413,0.06669
2873.828669,0.066911
2871.899925,0.067116
2869.971181,0.067267
2868.042437,0.067431
2866.113693,0.067607
2864.184949,0.067914
2862.256205,0.06855
2860.327461,0.069539
2858.398717,0.070811
2856.469973,0.072151
2854.541229,0.073198
2852.612485,0.073714
2850.68374,0.073581
2848.754996,0.072744
2846.826252,0.071404
2844.897508,0.069942
2842.968764,0.068559
2841.04002,0.067317
2839.111276,0.066369
2837.182532,0.065711
2835.253788,0.06513
2833.325044,0.064586
2831.3963,0.064131
2829.467556,0.063762
2827.538812,0.063504
2825.610067,0.063304
2823.681323,0.06307
2821.752579,0.062835
2819.823835,0.062701
2817.895091,0.062659
2815.966347,0.062556
2814.037603,0.062335
2812.108859,0.062114
2810.180115,0.061947
2808.251371,0.061758
2806.322627,0.061547
2804.393883,0.061452
2802.465139,0.061475
2800.536395,0.061471
2798.60765,0.061396
2796.678906,0.061301
2794.750162,0.061215
2792.821418,0.061142
2790.892674,0.061096
2788.96393,0.061042
2787.035186,0.06091
2785.106442,0.060754
2783.177698,0.060695
2781.248954,0.060694
2779.32021,0.060617
2777.391466,0.060443
2775.462722,0.060281
2773.533977,0.060223
2771.605233,0.060234
2769.676489,0.060222
2767.747745,0.060159
2765.819001,0.060076
2763.890257,0.059989
2761.961513,0.059949
2760.032769,0.059998
2758.104025,0.060036
2756.175281,0.060013
2754.246537,0.059992
2752.317793,0.059944
2750.389049,0.059871
2748.460305,0.059849
2746.53156,0.059838
2744.602816,0.059792
2742.674072,0.059721
2740.745328,0.059637
2738.816584,0.059602
2736.88784,0.059653
2734.959096,0.059729
2733.030352,0.059768
2731.101608,0.059757
2729.172864,0.059681
2727.24412,0.059579
2725.315376,0.059524
2723.386632,0.059525
2721.457888,0.059526
2719.529143,0.05948
2717.600399,0.059422
2715.671655,0.05942
2713.742911,0.059435
2711.814167,0.059384
2709.885423,0.059292
2707.956679,0.059244
2706.027935,0.059248
2704.099191,0.059216
2702.170447,0.059102
2700.241703,0.059
2698.312959,0.058985
2696.384215,0.059024
2694.45547,0.059066
2692.526726,0.059099
2690.597982,0.059093
2688.669238,0.059028
2686.740494,0.058981
2684.81175,0.059002
2682.883006,0.059008
2680.954262,0.05894
2679.025518,0.058872
2677.096774,0.058855
2675.16803,0.058838
2673.239286,0.058827
2671.310542,0.058873
2669.381798,0.058934
2667.453053,0.058928
2665.524309,0.058871
2663.595565,0.058838
2661.666821,0.058825
2659.738077,0.058797
2657.809333,0.058774
2655.880589,0.058751
2653.951845,0.05868
2652.023101,0.058575
2650.094357,0.058482
2648.165613,0.058365
2646.236869,0.058154
2644.308125,0.057854
2642.379381,0.057573
2640.450636,0.057412
2638.521892,0.057329
2636.593148,0.057225
2634.664404,0.05706
2632.73566,0.05686
2630.806916,0.05667
2628.878172,0.056464
2626.949428,0.056227
2625.020684,0.056016
2623.09194,0.055867
2621.163196,0.055745
2619.234452,0.055558
2617.305708,0.055288
2615.376963,0.055044
2613.448219,0.05483
2611.519475,0.054569
2609.590731,0.05434
2607.661987,0.054274
2605.733243,0.054285
2603.804499,0.054152
2601.875755,0.053896
2599.947011,0.05372
2598.018267,0.053591
2596.089523,0.053373
2594.160779,0.053082
2592.232035,0.052803
2590.303291,0.052654
2588.374546,0.052556
2586.445802,0.052293
2584.517058,0.052014
2582.588314,0.051964
2580.65957,0.052038
2578.730826,0.05213
2576.802082,0.052217
2574.873338,0.052182
2572.944594,0.052037
2571.01585,0.051901
2569.087106,0.051794
2567.158362,0.051746
2565.229618,0.051721
2563.300874,0.051562
2561.372129,0.051324
2559.443385,0.051242
2557.514641,0.051241
2555.585897,0.051121
2553.657153,0.050909
2551.728409,0.050597
2549.799665,0.050165
2547.870921,0.049889
2545.942177,0.049993
2544.013433,0.050268
2542.084689,0.050445
2540.155945,0.050548
2538.227201,0.050687
2536.298456,0.050778
2534.369712,0.050691
2532.440968,0.050557
2530.512224,0.050491
2528.58348,0.050357
2526.654736,0.050197
2524.725992,0.05014
2522.797248,0.05009
2520.868504,0.050041
2518.93976,0.050045
2517.011016,0.05001
2515.082272,0.049935
2513.153528,0.049868
2511.224784,0.049815
2509.296039,0.049824
2507.367295,0.049832
2505.438551,0.049782
2503.509807,0.049797
2501.581063,0.049813
2499.652319,0.049661
2497.723575,0.049479
2495.794831,0.049409
2493.866087,0.049339
2491.937343,0.04927
2490.008599,0.049333
2488.079855,0.049425
2486.151111,0.049445
2484.222366,0.049396
2482.293622,0.049284
2480.364878,0.049286
2478.436134,0.049493
2476.50739,0.049684
2474.578646,0.049689
2472.649902,0.049623
2470.721158,0.049604
2468.792414,0.049633
2466.86367,0.049733
2464.934926,0.049769
2463.006182,0.049564
2461.077438,0.049334
2459.148694,0.04936
2457.219949,0.04943
2455.291205,0.049296
2453.362461,0.049185
2451.433717,0.049304
2449.504973,0.049508
2447.576229,0.04954
2445.647485,0.049339
2443.718741,0.04916
2441.789997,0.049216
2439.861253,0.049286
2437.932509,0.049123
2436.003765,0.048986
2434.075021,0.049062
2432.146277,0.049149
2430.217532,0.04917
2428.288788,0.049157
2426.360044,0.049176
2424.4313,0.049294
2422.502556,0.049401
2420.573812,0.049335
2418.645068,0.049115
2416.716324,0.049032
2414.78758,0.049273
2412.858836,0.049564
2410.930092,0.049627
2409.001348,0.049558
2407.072604,0.049515
2405.143859,0.049486
2403.215115,0.049475
2401.286371,0.049532
2399.357627,0.049639
2397.428883,0.049815
2395.500139,0.050035
2393.571395,0.050177
2391.642651,0.050237
2389.713907,0.05025
2387.785163,0.050307
2385.856419,0.050511
2383.927675,0.050705
2381.998931,0.05077
2380.070187,0.050853
2378.141442,0.051107
2376.212698,0.051506
2374.283954,0.051882
2372.35521,0.052185
2370.426466,0.052498
2368.497722,0.052837
2366.568978,0.053187
2364.640234,0.053536
2362.71149,0.053871
2360.782746,0.054123
2358.854002,0.054166
2356.925258,0.053991
2354.996514,0.053767
2353.06777,0.053566
2351.139025,0.053333
2349.210281,0.053203
2347.281537,0.053336
2345.352793,0.053599
2343.424049,0.053831
2341.495305,0.054022
2339.566561,0.054142
2337.637817,0.054171
2335.709073,0.054168
2333.780329,0.054172
2331.851585,0.054105
2329.922841,0.053967
2327.994097,0.054085
2326.065352,0.054536
2324.136608,0.054657
2322.207864,0.053974
2320.27912,0.05294
2318.350376,0.052136
2316.421632,0.051536
2314.492888,0.050912
2312.564144,0.050367
2310.6354,0.050103
2308.706656,0.049966
2306.777912,0.049719
2304.849168,0.049323
2302.920424,0.04887
2300.99168,0.048489
2299.062935,0.048157
2297.134191,0.047782
2295.205447,0.047428
2293.276703,0.047098
2291.347959,0.046607
2289.419215,0.045968
2287.490471,0.045411
2285.561727,0.044852
2283.632983,0.044014
2281.704239,0.04306
2279.775495,0.042256
2277.846751,0.041567
2275.918007,0.041064
2273.989262,0.040772
2272.060518,0.040431
2270.131774,0.039931
2268.20303,0.039412
2266.274286,0.038925
2264.345542,0.038392
2262.416798,0.037872
2260.488054,0.037486
2258.55931,0.037185
2256.630566,0.036787
2254.701822,0.036205
2252.773078,0.035714
2250.844334,0.035504
2248.91559,0.035324
2246.986845,0.034927
2245.058101,0.034262
2243.129357,0.033598
2241.200613,0.033318
2239.271869,0.033273
2237.343125,0.033036
2235.414381,0.03248
2233.485637,0.031789
2231.556893,0.031199
2229.628149,0.030728
2227.699405,0.030384
2225.770661,0.030226
2223.841917,0.029866
2221.913173,0.029055
2219.984428,0.028456
2218.055684,0.028581
2216.12694,0.028804
2214.198196,0.028359
2212.269452,0.027584
2210.340708,0.02724
2208.411964,0.027227
2206.48322,0.02698
2204.554476,0.026295
2202.625732,0.025478
2200.696988,0.024958
2198.768244,0.024744
2196.8395,0.024717
2194.910755,0.024745
2192.982011,0.02445
2191.053267,0.023755
2189.124523,0.023095
2187.195779,0.022873
2185.267035,0.023026
2183.338291,0.02312
2181.409547,0.022751
2179.480803,0.021996
2177.552059,0.02139
2175.623315,0.020971
2173.694571,0.020401
2171.765827,0.01998
2169.837083,0.019942
2167.908338,0.019662
2165.979594,0.018675
2164.05085,0.017334
2162.122106,0.015931
2160.193362,0.014668
2158.264618,0.014286
2156.335874,0.015246
2154.40713,0.016866
2152.478386,0.018279
2150.549642,0.019476
2148.620898,0.020537
2146.692154,0.021289
2144.76341,0.022123
2142.834666,0.023188
2140.905921,0.024219
2138.977177,0.025218
2137.048433,0.026125
2135.119689,0.026988
2133.190945,0.028004
2131.262201,0.029218
2129.333457,0.030427
2127.404713,0.031375
2125.475969,0.032215
2123.547225,0.033096
2121.618481,0.033814
2119.689737,0.034162
2117.760993,0.034267
2115.832248,0.034484
2113.903504,0.03474
2111.97476,0.034614
2110.046016,0.034122
2108.117272,0.033688
2106.188528,0.033508
2104.259784,0.033439
2102.33104,0.033373
2100.402296,0.03323
2098.473552,0.033024
2096.544808,0.032949
2094.616064,0.033088
2092.68732,0.033335
2090.758576,0.033494
2088.829831,0.033515
2086.901087,0.033424
2084.972343,0.033122
2083.043599,0.032728
2081.114855,0.032466
2079.186111,0.032192
2077.257367,0.03157
2075.328623,0.030635
2073.399879,0.02986
2071.471135,0.0295
2069.542391,0.029345
2067.613647,0.029092
2065.684903,0.028701
2063.756158,0.028368
2061.827414,0.027956
2059.89867,0.027264
2057.969926,0.026654
2056.041182,0.026195
2054.112438,0.025611
2052.183694,0.024977
2050.25495,0.024037
2048.326206,0.022637
2046.397462,0.021303
2044.468718,0.020132
2042.539974,0.019087
2040.61123,0.018392
2038.682486,0.017873
2036.753741,0.01722
2034.824997,0.016346
2032.896253,0.015529
2030.967509,0.015372
2029.038765,0.015961
2027.110021,0.01654
2025.181277,0.016522
2023.252533,0.016135
2021.323789,0.015987
2019.395045,0.016488
2017.466301,0.017239
2015.537557,0.017487
2013.608813,0.017391
2011.680069,0.017465
2009.751324,0.01754
2007.82258,0.017488
2005.893836,0.01782
2003.965092,0.018643
2002.036348,0.019255
2000.107604,0.019329
1998.17886,0.019389
1996.250116,0.019831
1994.321372,0.020264
1992.392628,0.020395
1990.463884,0.02033
1988.53514,0.020112
1986.606396,0.019969
1984.677651,0.01986
1982.748907,0.019457
1980.820163,0.018735
1978.891419,0.017741
1976.962675,0.01702
1975.033931,0.017104
1973.105187,0.0175
1971.176443,0.017739
1969.247699,0.017959
1967.318955,0.018295
1965.390211,0.018723
1963.461467,0.019256
1961.532723,0.019918
1959.603979,0.020867
1957.675234,0.022049
1955.74649,0.023131
1953.817746,0.024141
1951.889002,0.025132
1949.960258,0.025946
1948.031514,0.026474
1946.10277,0.026713
1944.174026,0.026941
1942.245282,0.027376
1940.316538,0.027991
1938.387794,0.028786
1936.45905,0.029572
1934.530306,0.030008
1932.601562,0.030276
1930.672817,0.030884
1928.744073,0.031778
1926.815329,0.032561
1924.886585,0.033121
1922.957841,0.033508
1921.029097,0.03389
1919.100353,0.03444
1917.171609,0.03496
1915.242865,0.035224
1913.314121,0.035447
1911.385377,0.035831
1909.456633,0.036184
1907.527889,0.036366
1905.599144,0.036534
1903.6704,0.036793
1901.741656,0.037056
1899.812912,0.037214
1897.884168,0.037333
1895.955424,0.037544
1894.02668,0.037837
1892.097936,0.038275
1890.169192,0.038843
1888.240448,0.039225
1886.311704,0.039372
1884.38296,0.039539
1882.454216,0.039801
1880.525472,0.040015
1878.596727,0.040084
1876.667983,0.040198
1874.739239,0.04051
1872.810495,0.040831
1870.881751,0.041089
1868.953007,0.041325
1867.024263,0.041389
1865.095519,0.041371
1863.166775,0.041535
1861.238031,0.041843
1859.309287,0.042096
1857.380543,0.042255
1855.451799,0.042368
1853.523055,0.04241
1851.59431,0.042494
1849.665566,0.042711
1847.736822,0.042921
1845.808078,0.043125
1843.879334,0.043388
1841.95059,0.043532
1840.021846,0.043519
1838.093102,0.04358
1836.164358,0.043755
1834.235614,0.043955
1832.30687,0.044211
1830.378126,0.044525
1828.449382,0.044832
1826.520637,0.045063
1824.591893,0.045184
1822.663149,0.045184
1820.734405,0.045116
1818.805661,0.045191
1816.876917,0.045554
1814.948173,0.046038
1813.019429,0.046422
1811.090685,0.046682
1809.161941,0.04687
1807.233197,0.047068
1805.304453,0.047293
1803.375709,0.047411
1801.446965,0.04742
1799.51822,0.047456
1797.589476,0.047558
1795.660732,0.047714
1793.731988,0.047913
1791.803244,0.048065
1789.8745,0.048093
1787.945756,0.048114
1786.017012,0.048254
1784.088268,0.048497
1782.159524,0.048752
1780.23078,0.048923
1778.302036,0.048986
1776.373292,0.049008
1774.444547,0.049098
1772.515803,0.049248
1770.587059,0.049369
1768.658315,0.049441
1766.729571,0.049456
1764.800827,0.0495
1762.872083,0.049711
1760.943339,0.050088
1759.014595,0.0506
1757.085851,0.051282
1755.157107,0.052101
1753.228363,0.053051
1751.299619,0.054156
1749.370875,0.055309
1747.44213,0.056404
1745.513386,0.05736
1743.584642,0.058076
1741.655898,0.05857
1739.727154,0.058856
1737.79841,0.058904
1735.869666,0.058827
1733.940922,0.058707
1732.012178,0.058448
1730.083434,0.058155
1728.15469,0.058046
1726.225946,0.058067
1724.297202,0.058033
1722.368458,0.05794
1720.439713,0.057999
1718.510969,0.058329
1716.582225,0.05875
1714.653481,0.059099
1712.724737,0.059396
1710.795993,0.059651
1708.867249,0.059874
1706.938505,0.060076
1705.009761,0.060235
1703.081017,0.06044
1701.152273,0.060777
1699.223529,0.061111
1697.294785,0.061399
1695.36604,0.061708
1693.437296,0.06197
1691.508552,0.062249
1689.579808,0.062692
1687.651064,0.063278
1685.72232,0.064009
1683.793576,0.064751
1681.864832,0.065227
1679.936088,0.065572
1678.007344,0.066022
1676.0786,0.066602
1674.149856,0.067226
1672.221112,0.067781
1670.292368,0.068309
1668.363623,0.06886
1666.434879,0.069392
1664.506135,0.069945
1662.577391,0.070502
1660.648647,0.070975
1658.719903,0.071392
1656.791159,0.07182
1654.862415,0.07234
1652.933671,0.072889
1651.004927,0.073158
1649.076183,0.073215
1647.147439,0.073328
1645.218695,0.073408
1643.289951,0.073354
1641.361206,0.073337
1639.432462,0.073443
1637.503718,0.073606
1635.574974,0.073734
1633.64623,0.073723
1631.717486,0.073642
1629.788742,0.073654
1627.859998,0.07375
1625.931254,0.07384
1624.00251,0.073893
1622.073766,0.073885
1620.145022,0.073836
1618.216278,0.073871
1616.287533,0.074009
1614.358789,0.074086
1612.430045,0.074097
1610.501301,0.074182
1608.572557,0.074378
1606.643813,0.074595
1604.715069,0.074762
1602.786325,0.074938
1600.857581,0.075175
1598.928837,0.075405
1597.000093,0.075556
1595.071349,0.075621
1593.142605,0.075619
1591.213861,0.075544
1589.285116,0.075388
1587.356372,0.07519
1585.427628,0.075004
1583.498884,0.074836
1581.57014,0.074618
1579.641396,0.074351
1577.712652,0.074112
1575.783908,0.073837
1573.855164,0.073426
1571.92642,0.073013
1569.997676,0.072676
1568.068932,0.072296
1566.140188,0.071854
1564.211443,0.071448
1562.282699,0.071188
1560.353955,0.071162
1558.425211,0.071182
1556.496467,0.070984
1554.567723,0.070664
1552.638979,0.070362
1550.710235,0.070104
1548.781491,0.069895
1546.852747,0.069706
1544.924003,0.069495
1542.995259,0.069241
1541.066515,0.068968
1539.137771,0.068628
1537.209026,0.06816
1535.280282,0.06768
1533.351538,0.06727
1531.422794,0.06688
1529.49405,0.066511
1527.565306,0.066185
1525.636562,0.065873
1523.707818,0.065615
1521.779074,0.06544
1519.85033,0.065236
1517.921586,0.064954
1515.992842,0.064638
1514.064098,0.064287
1512.135354,0.063898
1510.206609,0.063565
1508.277865,0.063382
1506.349121,0.063216
1504.420377,0.062831
1502.491633,0.06235
1500.562889,0.062036
1498.634145,0.06195
1496.705401,0.061977
1494.776657,0.061921
1492.847913,0.061729
1490.919169,0.061566
1488.990425,0.061532
1487.061681,0.06154
1485.132936,0.061527
1483.204192,0.061582
1481.275448,0.061795
1479.346704,0.062117
1477.41796,0.0625
1475.489216,0.063017
1473.560472,0.063793
1471.631728,0.064881
1469.702984,0.066125
1467.77424,0.067247
1465.845496,0.068034
1463.916752,0.068443
1461.988008,0.068613
1460.059264,0.068771
1458.130519,0.069
1456.201775,0.069033
1454.273031,0.068699
1452.344287,0.068244
1450.415543,0.067874
1448.486799,0.067575
1446.558055,0.06726
1444.629311,0.066906
1442.700567,0.066616
1440.771823,0.066463
1438.843079,0.066415
1436.914335,0.066398
1434.985591,0.06633
1433.056847,0.066252
1431.128102,0.06625
1429.199358,0.066341
1427.270614,0.066518
1425.34187,0.066731
1423.413126,0.066973
1421.484382,0.067322
1419.555638,0.067727
1417.626894,0.067998
1415.69815,0.068105
1413.769406,0.068143
1411.840662,0.068124
1409.911918,0.068043
1407.983174,0.06795
1406.054429,0.067879
1404.125685,0.067809
1402.196941,0.067711
1400.268197,0.067596
1398.339453,0.067491
1396.410709,0.067433
1394.481965,0.067386
1392.553221,0.06729
1390.624477,0.067214
1388.695733,0.067246
1386.766989,0.067364
1384.838245,0.067459
1382.909501,0.067454
1380.980757,0.067417
1379.052012,0.067426
1377.123268,0.067392
1375.194524,0.067184
1373.26578,0.06687
1371.337036,0.066647
1369.408292,0.066582
1367.479548,0.066619
1365.550804,0.066679
1363.62206,0.066651
1361.693316,0.066444
1359.764572,0.066104
1357.835828,0.065753
1355.907084,0.06544
1353.97834,0.065147
1352.049595,0.064848
1350.120851,0.064556
1348.192107,0.06432
1346.263363,0.064123
1344.334619,0.063926
1342.405875,0.063774
1340.477131,0.063677
1338.548387,0.063553
1336.619643,0.063399
1334.690899,0.063282
1332.762155,0.06321
1330.833411,0.06318
1328.904667,0.06322
1326.975922,0.063341
1325.047178,0.063536
1323.118434,0.063772
1321.18969,0.063979
1319.260946,0.064121
1317.332202,0.064228
1315.403458,0.064299
1313.474714,0.064288
1311.54597,0.064189
1309.617226,0.064036
1307.688482,0.063866
1305.759738,0.063713
1303.830994,0.063605
1301.90225,0.063527
1299.973505,0.063434
1298.044761,0.063322
1296.116017,0.063225
1294.187273,0.063182
1292.258529,0.063207
1290.329785,0.06329
1288.401041,0.063403
1286.472297,0.063523
1284.543553,0.063661
1282.614809,0.063812
1280.686065,0.063984
1278.757321,0.064205
1276.828577,0.064446
1274.899832,0.064632
1272.971088,0.064766
1271.042344,0.064971
1269.1136,0.065301
1267.184856,0.065643
1265.256112,0.065879
1263.327368,0.065981
1261.398624,0.065931
1259.46988,0.06574
1257.541136,0.065515
1255.612392,0.065292
1253.683648,0.065039
1251.754904,0.064852
1249.82616,0.064771
1247.897415,0.064697
1245.968671,0.064601
1244.039927,0.064526
1242.111183,0.064477
1240.182439,0.064412
1238.253695,0.064315
1236.324951,0.064229
1234.396207,0.064174
1232.467463,0.064087
1230.538719,0.063901
1228.609975,0.06366
1226.681231,0.063437
1224.752487,0.063241
1222.823743,0.063062
1220.894998,0.062868
1218.966254,0.062664
1217.03751,0.062533
1215.108766,0.062471
1213.180022,0.062375
1211.251278,0.062239
1209.322534,0.062112
1207.39379,0.062001
1205.465046,0.061878
1203.536302,0.061765
1201.607558,0.061742
1199.678814,0.061789
1197.75007,0.061795
1195.821325,0.061751
1193.892581,0.06176
1191.963837,0.061859
1190.035093,0.061978
1188.106349,0.062099
1186.177605,0.062248
1184.248861,0.062391
1182.320117,0.062511
1180.391373,0.06262
1178.462629,0.062737
1176.533885,0.062866
1174.605141,0.062978
1172.676397,0.063068
1170.747653,0.063181
1168.818908,0.063325
1166.890164,0.063421
1164.96142,0.06343
1163.032676,0.063439
1161.103932,0.063487
1159.175188,0.063544
1157.246444,0.063583
1155.3177,0.063536
1153.388956,0.063387
1151.460212,0.063259
1149.531468,0.063258
1147.602724,0.063303
1145.67398,0.063288
1143.745236,0.063262
1141.816491,0.063268
1139.887747,0.063307
1137.959003,0.063433
1136.030259,0.063646
1134.101515,0.063949
1132.172771,0.06439
1130.244027,0.064926
1128.315283,0.065467
1126.386539,0.065974
1124.457795,0.066457
1122.529051,0.066929
1120.600307,0.067274
1118.671563,0.067342
1116.742818,0.067205
1114.814074,0.066992
1112.88533,0.066658
1110.956586,0.066198
1109.027842,0.065796
1107.099098,0.065559
1105.170354,0.065386
1103.24161,0.06516
1101.312866,0.064917
1099.384122,0.064786
1097.455378,0.064798
1095.526634,0.06483
1093.59789,0.064771
1091.669146,0.064607
1089.740401,0.064422
1087.811657,0.064314
1085.882913,0.064223
1083.954169,0.064016
1082.025425,0.063732
1080.096681,0.063507
1078.167937,0.06333
1076.239193,0.063134
1074.310449,0.062965
1072.381705,0.062816
1070.452961,0.062611
1068.524217,0.062382
1066.595473,0.06223
1064.666728,0.062204
1062.737984,0.062223
1060.80924,0.06221
1058.880496,0.062261
1056.951752,0.062459
1055.023008,0.062832
1053.094264,0.063435
1051.16552,0.064215
1049.236776,0.064957
1047.308032,0.065444
1045.379288,0.065645
1043.450544,0.065659
1041.5218,0.065497
1039.593056,0.065172
1037.664311,0.064763
1035.735567,0.064323
1033.806823,0.063903
1031.878079,0.06356
1029.949335,0.063275
1028.020591,0.062996
1026.091847,0.062716
1024.163103,0.062498
1022.234359,0.062377
1020.305615,0.062259
1018.376871,0.062027
1016.448127,0.061667
1014.519383,0.061219
1012.590639,0.060689
1010.661894,0.060115
1008.73315,0.059593
1006.804406,0.059158
1004.875662,0.058773
1002.946918,0.058475
1001.018174,0.058317
999.08943,0.058242
997.160686,0.058098
995.231942,0.057804
993.303198,0.057482
991.374454,0.057239
989.44571,0.057029
987.516966,0.056861
985.588221,0.056807
983.659477,0.0568
981.730733,0.056738
979.801989,0.056621
977.873245,0.056496
975.944501,0.056379
974.015757,0.056258
972.087013,0.056149
970.158269,0.056086
968.229525,0.056056
966.300781,0.056055
964.372037,0.056086
962.443293,0.056082
960.514549,0.055979
958.585804,0.055875
956.65706,0.055885
954.728316,0.055885
952.799572,0.05579
950.870828,0.055761
948.942084,0.055837
947.01334,0.05586
945.084596,0.055733
943.155852,0.055542
941.227108,0.055458
939.298364,0.055476
937.36962,0.055508
935.440876,0.055584
933.512132,0.055724
931.583387,0.055857
929.654643,0.055928
927.725899,0.055912
925.797155,0.055795
923.868411,0.055653
921.939667,0.055587
920.010923,0.05554
918.082179,0.055405
916.153435,0.055214
914.224691,0.055079
912.295947,0.055026
910.367203,0.055
908.438459,0.055003
906.509714,0.055016
904.58097,0.054991
902.652226,0.055008
900.723482,0.055074
898.794738,0.055026
896.865994,0.054881
894.93725,0.054843
893.008506,0.054897
891.079762,0.054932
889.151018,0.05501
887.222274,0.055101
885.29353,0.0551
883.364786,0.055107
881.436042,0.055261
879.507297,0.055477
877.578553,0.055602
875.649809,0.055613
873.721065,0.055601
871.792321,0.055705
869.863577,0.055949
867.934833,0.056267
866.006089,0.056607
864.077345,0.056792
862.148601,0.056748
860.219857,0.056696
858.291113,0.056733
856.362369,0.056732
854.433625,0.056683
852.50488,0.056653
850.576136,0.056601
848.647392,0.056515
846.718648,0.056438
844.789904,0.056357
842.86116,0.056293
840.932416,0.056335
839.003672,0.056487
837.074928,0.056629
835.146184,0.056719
833.21744,0.056849
831.288696,0.057044
829.359952,0.057268
827.431207,0.057516
825.502463,0.05771
823.573719,0.05777
821.644975,0.057785
819.716231,0.057897
817.787487,0.058045
815.858743,0.058039
813.929999,0.057916
812.001255,0.057881
810.072511,0.057953
808.143767,0.058059
806.215023,0.058096
804.286279,0.05802
802.357535,0.058054
800.42879,0.058228
798.500046,0.058295
796.571302,0.058264
794.642558,0.058248
792.713814,0.058209
790.78507,0.058165
788.856326,0.058245
786.927582,0.058416
784.998838,0.058556
783.070094,0.058699
781.14135,0.058843
779.212606,0.05889
777.283862,0.05885
775.355117,0.058821
773.426373,0.058836
771.497629,0.058816
769.568885,0.058703
767.640141,0.058552
765.711397,0.058464
763.782653,0.058531
761.853909,0.058749
759.925165,0.058895
757.996421,0.058848
756.067677,0.058838
754.138933,0.058942
752.210189,0.058927
750.281445,0.058826
748.3527,0.05892
746.423956,0.059185
744.495212,0.059397
742.566468,0.05952
740.637724,0.059623
738.70898,0.059657
736.780236,0.059615
734.851492,0.059764
732.922748,0.060196
730.994004,0.060515
729.06526,0.060608
727.136516,0.060829
725.207772,0.061155
723.279028,0.061235
721.350283,0.061151
719.421539,0.061171
717.492795,0.061215
715.564051,0.061167
713.635307,0.061092
711.706563,0.061014
709.777819,0.060945
707.849075,0.06096
705.920331,0.061069
703.991587,0.06127
702.062843,0.061568
700.134099,0.061844
698.205355,0.062008
696.27661,0.062026
694.347866,0.061916
692.419122,0.061826
690.490378,0.061842
688.561634,0.061915
686.63289,0.061967
684.704146,0.061951
682.775402,0.061952
680.846658,0.062006
678.917914,0.061964
676.98917,0.061816
675.060426,0.061763
673.131682,0.061829
671.202938,0.061941
669.274193,0.062062
667.345449,0.061968
665.416705,0.061619
663.487961,0.06133
661.559217,0.061245
659.630473,0.061216
657.701729,0.061117
655.772985,0.061048
653.844241,0.061093
651.915497,0.061149
649.986753,0.061117
648.058009,0.060995
646.129265,0.06099
644.200521,0.061217
642.271776,0.061356
640.343032,0.061233
638.414288,0.06104
636.485544,0.06089
634.5568,0.060853
632.628056,0.061017
630.699312,0.061301
628.770568,0.061476
626.841824,0.061261
624.91308,0.060823
622.984336,0.060845
621.055592,0.061204
619.126848,0.060952
617.198103,0.060211
615.269359,0.06007
613.340615,0.06056
611.411871,0.060798
609.483127,0.060641
607.554383,0.060418
605.625639,0.060192
603.696895,0.060124
601.768151,0.060309
599.839407,0.060538
597.910663,0.060551
595.981919,0.060271
594.053175,0.05998
592.124431,0.059921
590.195686,0.059953
588.266942,0.059888
586.338198,0.059779
584.409454,0.059679
582.48071,0.059446
580.551966,0.059143
578.623222,0.058956
576.694478,0.058824
574.765734,0.058955
572.83699,0.059439
570.908246,0.059702
568.979502,0.059425
567.050758,0.058865
565.122013,0.058455
563.193269,0.058459
561.264525,0.058671
559.335781,0.058707
557.407037,0.05849
555.478293,0.058277
553.549549,0.058112
551.620805,0.057715
549.692061,0.057256
547.763317,0.057252
545.834573,0.057606
543.905829,0.057781
541.977085,0.057715
540.048341,0.05773
538.119596,0.057903
536.190852,0.058049
534.262108,0.05802
532.333364,0.057756
530.40462,0.057271
528.475876,0.056692
526.547132,0.056161
524.618388,0.05573
522.689644,0.055263
520.7609,0.054757
518.832156,0.054518
516.903412,0.054586
514.974668,0.054646
513.045924,0.054477
511.117179,0.054125
509.188435,0.05381
507.259691,0.053702
505.330947,0.053883
503.402203,0.054307
501.473459,0.054669
499.544715,0.054631
497.615971,0.05435
495.687227,0.054318
493.758483,0.054442
491.829739,0.054314
489.900995,0.054114
487.972251,0.053958
486.043506,0.053498
484.114762,0.053063
482.186018,0.053337
480.257274,0.053822
478.32853,0.053713
476.399786,0.053243
474.471042,0.052753
472.542298,0.052429
470.613554,0.052726
468.68481,0.053314
466.756066,0.053399
464.827322,0.053051
462.898578,0.052593
460.969834,0.052095
459.041089,0.051871
457.112345,0.052147
455.183601,0.052363
453.254857,0.052178
451.326113,0.052232
449.397369,0.05247
447.468625,0.051896
445.539881,0.05058
443.611137,0.049456
441.682393,0.048989
439.753649,0.04934
437.824905,0.050044
435.896161,0.050266
433.967417,0.050319
432.038672,0.050538
430.109928,0.050096
428.181184,0.048713
426.25244,0.047414
424.323696,0.047028
422.394952,0.047273
420.466208,0.048037
418.537464,0.049222
416.60872,0.049607
414.679976,0.048864
412.751232,0.047922
410.822488,0.047067
408.893744,0.0463
406.964999,0.045966
405.036255,0.046027
403.107511,0.046212
401.178767,0.046259
399.250023,0.045874
