3996.35772,0.00278
3994.428976,0.002732
3992.500232,0.002649
3990.571488,0.002503
3988.642744,0.002438
3986.714,0.002539
3984.785256,0.002674
3982.856511,0.00278
3980.927767,0.002906
3978.999023,0.003035
3977.070279,0.003073
3975.141535,0.002984
3973.212791,0.002893
3971.284047,0.002905
3969.355303,0.002912
3967.426559,0.00285
3965.497815,0.002853
3963.569071,0.002924
3961.640327,0.002945
3959.711583,0.002894
3957.782839,0.002764
3955.854094,0.002632
3953.92535,0.002658
3951.996606,0.002811
3950.067862,0.002932
3948.139118,0.002962
3946.210374,0.002948
3944.28163,0.002909
3942.352886,0.002832
3940.424142,0.002722
3938.495398,0.002609
3936.566654,0.002514
3934.63791,0.002438
3932.709166,0.002428
3930.780422,0.00253
3928.851677,0.002704
3926.922933,0.002796
3924.994189,0.002619
3923.065445,0.002292
3921.136701,0.002265
3919.207957,0.00264
3917.279213,0.00291
3915.350469,0.002786
3913.421725,0.002489
3911.492981,0.00226
3909.564237,0.002247
3907.635493,0.002342
3905.706749,0.002332
3903.778004,0.002327
3901.84926,0.002456
3899.920516,0.002594
3897.991772,0.002596
3896.063028,0.002547
3894.134284,0.002592
3892.20554,0.002607
3890.276796,0.002466
3888.348052,0.00234
3886.419308,0.002368
3884.490564,0.002427
3882.56182,0.002438
3880.633076,0.0025
3878.704332,0.002622
3876.775587,0.002701
3874.846843,0.002745
3872.918099,0.0028770000000000002
3870.989355,0.003049
3869.060611,0.003017
3867.131867,0.002757
3865.203123,0.002506
3863.274379,0.002374
3861.345635,0.002301
3859.416891,0.00239
3857.488147,0.002761
3855.559403,0.003121
3853.630659,0.003114
3851.701915,0.002831
3849.77317,0.002542
3847.844426,0.002446
3845.915682,0.002604
3843.986938,0.00274
3842.058194,0.002736
3840.12945,0.002823
3838.200706,0.002902
3836.271962,0.002791
3834.343218,0.002702
3832.414474,0.00269
3830.48573,0.002606
3828.556986,0.002488
3826.628242,0.002415
3824.699497,0.002442
3822.770753,0.002528
3820.842009,0.002497
3818.913265,0.002458
3816.984521,0.002556
3815.055777,0.002586
3813.127033,0.002519
3811.198289,0.002458
3809.269545,0.002379
3807.340801,0.002367
3805.412057,0.002438
3803.483313,0.002475
3801.554569,0.002468
3799.625825,0.002479
3797.69708,0.002473
3795.768336,0.002362
3793.839592,0.002268
3791.910848,0.002321
3789.982104,0.002354
3788.05336,0.002325
3786.124616,0.002407
3784.195872,0.002475
3782.267128,0.002395
3780.338384,0.00243
3778.40964,0.002642
3776.480896,0.002685
3774.552152,0.002425
3772.623408,0.002152
3770.694663,0.002131
3768.765919,0.002282
3766.837175,0.002428
3764.908431,0.002474
3762.979687,0.002433
3761.050943,0.002404
3759.122199,0.00236
3757.193455,0.00231
3755.264711,0.002377
3753.335967,0.002524
3751.407223,0.002588
3749.478479,0.002563
3747.549735,0.002628
3745.62099,0.002675
3743.692246,0.002396
3741.763502,0.002068
3739.834758,0.002158
3737.906014,0.002493
3735.97727,0.002605
3734.048526,0.002453
3732.119782,0.002337
3730.191038,0.002418
3728.262294,0.002631
3726.33355,0.002779
3724.404806,0.002724
3722.476062,0.002471
3720.547318,0.002118
3718.618573,0.001941
3716.689829,0.002148
3714.761085,0.00251
3712.832341,0.002721
3710.903597,0.002782
3708.974853,0.002647
3707.046109,0.002251
3705.117365,0.00192
3703.188621,0.001899
3701.259877,0.002034
3699.331133,0.00218
3697.402389,0.002246
3695.473645,0.002172
3693.5449,0.002112
3691.616156,0.002134
3689.687412,0.002056
3687.758668,0.001879
3685.829924,0.001835
3683.90118,0.002018
3681.972436,0.002288
3680.043692,0.002469
3678.114948,0.00252
3676.186204,0.002386
3674.25746,0.002133
3672.328716,0.001965
3670.399972,0.001874
3668.471228,0.001849
3666.542483,0.001934
3664.613739,0.001954
3662.684995,0.001837
3660.756251,0.0018
3658.827507,0.001874
3656.898763,0.001908
3654.970019,0.001954
3653.041275,0.002104
3651.112531,0.002285
3649.183787,0.002333
3647.255043,0.002221
3645.326299,0.002143
3643.397555,0.002203
3641.468811,0.002307
3639.540066,0.00232
3637.611322,0.002241
3635.682578,0.0022
3633.753834,0.002267
3631.82509,0.002404
3629.896346,0.002513
3627.967602,0.002507
3626.038858,0.002426
3624.110114,0.002381
3622.18137,0.002337
3620.252626,0.002179
3618.323882,0.001993
3616.395138,0.001996
3614.466393,0.002222
3612.537649,0.002471
3610.608905,0.002576
3608.680161,0.002582
3606.751417,0.002513
3604.822673,0.002258
3602.893929,0.002022
3600.965185,0.002162
3599.036441,0.002408
3597.107697,0.00239
3595.178953,0.002371
3593.250209,0.002537
3591.321465,0.002667
3589.392721,0.002733
3587.463976,0.00289
3585.535232,0.002914
3583.606488,0.002612
3581.677744,0.002386
3579.749,0.002386
3577.820256,0.002305
3575.891512,0.002275
3573.962768,0.002504
3572.034024,0.002746
3570.10528,0.002861
3568.176536,0.002944
3566.247792,0.002886
3564.319048,0.002669
3562.390304,0.002588
3560.461559,0.00267
3558.532815,0.002684
3556.604071,0.002707
3554.675327,0.002871
3552.746583,0.002963
3550.817839,0.002884
3548.889095,0.002776
3546.960351,0.002657
3545.031607,0.002623
3543.102863,0.002769
3541.174119,0.002913
3539.245375,0.003002
3537.316631,0.003112
3535.387886,0.00323
3533.459142,0.003338
3531.530398,0.003324
3529.601654,0.003178
3527.67291,0.003098
3525.744166,0.003142
3523.815422,0.003248
3521.886678,0.003381
3519.957934,0.003432
3518.02919,0.003374
3516.100446,0.003272
3514.171702,0.003133
3512.242958,0.003093
3510.314214,0.003272
3508.385469,0.003449
3506.456725,0.003463
3504.527981,0.003401
3502.599237,0.00327
3500.670493,0.003168
3498.741749,0.003291
3496.813005,0.003546
3494.884261,0.003709
3492.955517,0.003718
3491.026773,0.003698
3489.098029,0.003786
3487.169285,0.003846
3485.240541,0.003737
3483.311796,0.003644
3481.383052,0.003681
3479.454308,0.0037
3477.525564,0.003701
3475.59682,0.003791
3473.668076,0.003918
3471.739332,0.003972
3469.810588,0.00392
3467.881844,0.003896
3465.9531,0.003992
3464.024356,0.004097
3462.095612,0.00416
3460.166868,0.004177
3458.238124,0.004075
3456.309379,0.003911
3454.380635,0.003858
3452.451891,0.003964
3450.523147,0.004081
3448.594403,0.004039
3446.665659,0.003956
3444.736915,0.004089
3442.808171,0.004239
3440.879427,0.004141
3438.950683,0.004073
3437.021939,0.004219
3435.093195,0.004295
3433.164451,0.004189
3431.235707,0.004091
3429.306962,0.004105
3427.378218,0.004314
3425.449474,0.004719
3423.52073,0.005016
3421.591986,0.005019
3419.663242,0.00496
3417.734498,0.005038
3415.805754,0.00509
3413.87701,0.00496
3411.948266,0.004775
3410.019522,0.004639
3408.090778,0.004574
3406.162034,0.004636
3404.233289,0.004727
3402.304545,0.004683
3400.375801,0.004628
3398.447057,0.004702
3396.518313,0.004747
3394.589569,0.004681
3392.660825,0.004683
3390.732081,0.004855
3388.803337,0.005031
3386.874593,0.005071
3384.945849,0.00507
3383.017105,0.005061
3381.088361,0.004964
3379.159617,0.00482
3377.230872,0.004767
3375.302128,0.004824
3373.373384,0.004883
3371.44464,0.004962
3369.515896,0.005119
3367.587152,0.005226
3365.658408,0.005182
3363.729664,0.005129
3361.80092,0.005149
3359.872176,0.005141
3357.943432,0.005152
3356.014688,0.005279
3354.085944,0.005393
3352.1572,0.005358
3350.228455,0.005255
3348.299711,0.005268
3346.370967,0.005434
3344.442223,0.005598
3342.513479,0.005626
3340.584735,0.005575
3338.655991,0.005598
3336.727247,0.005702
3334.798503,0.00578
3332.869759,0.005809
3330.941015,0.005863
3329.012271,0.006011
3327.083527,0.006177
3325.154782,0.006203
3323.226038,0.006115
3321.297294,0.006067
3319.36855,0.006088
3317.439806,0.006102
3315.511062,0.006056
3313.582318,0.005973
3311.653574,0.005908
3309.72483,0.005866
3307.796086,0.005848
3305.867342,0.005892
3303.938598,0.006036
3302.009854,0.006186
3300.08111,0.006212
3298.152365,0.006242
3296.223621,0.006363
3294.294877,0.006375
3292.366133,0.006332
3290.437389,0.006443
3288.508645,0.006554
3286.579901,0.006483
3284.651157,0.006414
3282.722413,0.006577
3280.793669,0.006795
3278.864925,0.006783
3276.936181,0.006649
3275.007437,0.006571
3273.078692,0.006454
3271.149948,0.006335
3269.221204,0.006379
3267.29246,0.006462
3265.363716,0.006452
3263.434972,0.00639
3261.506228,0.006265
3259.577484,0.006151
3257.64874,0.006127
3255.719996,0.006099
3253.791252,0.006082
3251.862508,0.006176
3249.933764,0.006235
3248.00502,0.006093
3246.076275,0.005917
3244.147531,0.005926
3242.218787,0.006091
3240.290043,0.00626
3238.361299,0.006294
3236.432555,0.006153
3234.503811,0.005916
3232.575067,0.005711
3230.646323,0.005675
3228.717579,0.005818
3226.788835,0.005914
3224.860091,0.005815
3222.931347,0.005729
3221.002603,0.005797
3219.073858,0.005808
3217.145114,0.005684
3215.21637,0.005626
3213.287626,0.005667
3211.358882,0.005714
3209.430138,0.005737
3207.501394,0.00564
3205.57265,0.005475
3203.643906,0.005434
3201.715162,0.005477
3199.786418,0.005494
3197.857674,0.005447
3195.92893,0.005388
3194.000185,0.005478
3192.071441,0.005657
3190.142697,0.005704
3188.213953,0.00567
3186.285209,0.00569
3184.356465,0.005624
3182.427721,0.005367
3180.498977,0.005129
3178.570233,0.005063
3176.641489,0.005065
3174.712745,0.005066
3172.784001,0.005087
3170.855257,0.005063
3168.926513,0.005017
3166.997768,0.005081
3165.069024,0.005202
3163.14028,0.005248
3161.211536,0.005254
3159.282792,0.005279
3157.354048,0.005254
3155.425304,0.005131
3153.49656,0.00499
3151.567816,0.004916
3149.639072,0.00486
3147.710328,0.004719
3145.781584,0.004595
3143.85284,0.004609
3141.924096,0.004612
3139.995351,0.004532
3138.066607,0.004543
3136.137863,0.004717
3134.209119,0.004811
3132.280375,0.004691
3130.351631,0.004594
3128.422887,0.004611
3126.494143,0.004615
3124.565399,0.004554
3122.636655,0.004442
3120.707911,0.004385
3118.779167,0.004457
3116.850423,0.004556
3114.921678,0.004568
3112.992934,0.004551
3111.06419,0.004601
3109.135446,0.00464
3107.206702,0.004555
3105.277958,0.00446
3103.349214,0.004501
3101.42047,0.004554
3099.491726,0.004478
3097.562982,0.004363
3095.634238,0.004287
3093.705494,0.004216
3091.77675,0.004181
3089.848006,0.004254
3087.919261,0.004376
3085.990517,0.00442
3084.061773,0.004348
3082.133029,0.004234
3080.204285,0.00416
3078.275541,0.004183
3076.346797,0.004294
3074.418053,0.004371
3072.489309,0.004358
3070.560565,0.004356
3068.631821,0.004384
3066.703077,0.004344
3064.774333,0.004282
3062.845589,0.004332
3060.916844,0.004419
3058.9881,0.004396
3057.059356,0.004295
3055.130612,0.004195
3053.201868,0.004086
3051.273124,0.004024
3049.34438,0.004068
3047.415636,0.004112
3045.486892,0.004138
3043.558148,0.004219
3041.629404,0.004291
3039.70066,0.004239
3037.771916,0.004074
3035.843171,0.003956
3033.914427,0.003953
3031.985683,0.004021
3030.056939,0.004125
3028.128195,0.004182
3026.199451,0.004169
3024.270707,0.004112
3022.341963,0.00396
3020.413219,0.0038
3018.484475,0.003802
3016.555731,0.003872
3014.626987,0.003846
3012.698243,0.003763
3010.769499,0.003698
3008.840754,0.00367
3006.91201,0.003673
3004.983266,0.003689
3003.054522,0.003718
3001.125778,0.003786
2999.197034,0.003881
2997.26829,0.003891
2995.339546,0.003809
2993.410802,0.003733
2991.482058,0.00369
2989.553314,0.003744
2987.62457,0.003887
2985.695826,0.00395
2983.767081,0.003924
2981.838337,0.003961
2979.909593,0.004036
2977.980849,0.004022
2976.052105,0.003935
2974.123361,0.003877
2972.194617,0.003935
2970.265873,0.004127
2968.337129,0.004346
2966.408385,0.00447
2964.479641,0.004512
2962.550897,0.004588
2960.622153,0.004695
2958.693409,0.004686
2956.764664,0.004591
2954.83592,0.004556
2952.907176,0.004568
2950.978432,0.004566
2949.049688,0.004492
2947.120944,0.004364
2945.1922,0.004288
2943.263456,0.00427
2941.334712,0.004338
2939.405968,0.004514
2937.477224,0.004645
2935.54848,0.004656
2933.619736,0.004585
2931.690992,0.004457
2929.762247,0.004359
2927.833503,0.00433
2925.904759,0.004316
2923.976015,0.004358
2922.047271,0.004495
2920.118527,0.00463
2918.189783,0.004692
2916.261039,0.004702
2914.332295,0.004657
2912.403551,0.004541
2910.474807,0.00442
2908.546063,0.004365
2906.617319,0.004362
2904.688574,0.004335
2902.75983,0.004234
2900.831086,0.004125
2898.902342,0.004104
2896.973598,0.004146
2895.044854,0.004112
2893.11611,0.003969
2891.187366,0.003834
2889.258622,0.003833
2887.329878,0.003987
2885.401134,0.004072
2883.47239,0.003937
2881.543646,0.003773
2879.614902,0.003728
2877.686157,0.003772
2875.757413,0.003862
2873.828669,0.003959
2871.899925,0.003998
2869.971181,0.003987
2868.042437,0.003983
2866.113693,0.003964
2864.184949,0.003905
2862.256205,0.003847
2860.327461,0.003853
2858.398717,0.003912
2856.469973,0.003918
2854.541229,0.003873
2852.612485,0.003905
2850.68374,0.004047
2848.754996,0.004133
2846.826252,0.004013
2844.897508,0.003768
2842.968764,0.003579
2841.04002,0.003505
2839.111276,0.003489
2837.182532,0.003467
2835.253788,0.003404
2833.325044,0.003301
2831.3963,0.00319
2829.467556,0.003157
2827.538812,0.003237
2825.610067,0.003301
2823.681323,0.003265
2821.752579,0.003194
2819.823835,0.003214
2817.895091,0.003324
2815.966347,0.003372
2814.037603,0.003318
2812.108859,0.003238
2810.180115,0.003178
2808.251371,0.003143
2806.322627,0.003119
2804.393883,0.003118
2802.465139,0.003164
2800.536395,0.003246
2798.60765,0.00331
2796.678906,0.003291
2794.750162,0.003185
2792.821418,0.003091
2790.892674,0.003104
2788.96393,0.003151
2787.035186,0.003097
2785.106442,0.002963
2783.177698,0.002915
2781.248954,0.002992
2779.32021,0.003053
2777.391466,0.003026
2775.462722,0.002952
2773.533977,0.002893
2771.605233,0.002884
2769.676489,0.002915
2767.747745,0.002938
2765.819001,0.002917
2763.890257,0.002862
2761.961513,0.002841
2760.032769,0.002886
2758.104025,0.002907
2756.175281,0.002889
2754.246537,0.002918
2752.317793,0.002943
2750.389049,0.002928
2748.460305,0.002924
2746.53156,0.002909
2744.602816,0.002848
2742.674072,0.002762
2740.745328,0.002717
2738.816584,0.002766
2736.88784,0.002886
2734.959096,0.002979
2733.030352,0.003006
2731.101608,0.003014
2729.172864,0.002971
2727.24412,0.002853
2725.315376,0.002786
2723.386632,0.002828
2721.457888,0.002849
2719.529143,0.002762
2717.600399,0.002644
2715.671655,0.002591
2713.742911,0.002595
2711.814167,0.002593
2709.885423,0.002583
2707.956679,0.002604
2706.027935,0.002647
2704.099191,0.002661
2702.170447,0.00261
2700.241703,0.002529
2698.312959,0.002515
2696.384215,0.002607
2694.45547,0.00271
2692.526726,0.002728
2690.597982,0.002685
2688.669238,0.002632
2686.740494,0.002584
2684.81175,0.002576
2682.883006,0.002604
2680.954262,0.002596
2679.025518,0.002565
2677.096774,0.002611
2675.16803,0.002726
2673.239286,0.002793
2671.310542,0.002753
2669.381798,0.002691
2667.453053,0.002675
2665.524309,0.002628
2663.595565,0.00253
2661.666821,0.002471
2659.738077,0.002501
2657.809333,0.00261
2655.880589,0.002684
2653.951845,0.002609
2652.023101,0.002511
2650.094357,0.00254
2648.165613,0.002623
2646.236869,0.002641
2644.308125,0.002559
2642.379381,0.002472
2640.450636,0.002509
2638.521892,0.002597
2636.593148,0.002582
2634.664404,0.002467
2632.73566,0.002337
2630.806916,0.002287
2628.878172,0.002319
2626.949428,0.002355
2625.020684,0.002399
2623.09194,0.002421
2621.163196,0.002348
2619.234452,0.002211
2617.305708,0.002142
2615.376963,0.002215
2613.448219,0.002264
2611.519475,0.00218
2609.590731,0.002083
2607.661987,0.002013
2605.733243,0.001956
2603.804499,0.001908
2601.875755,0.001917
2599.947011,0.002052
2598.018267,0.00212
2596.089523,0.002008
2594.160779,0.001925
2592.232035,0.00198
2590.303291,0.002071
2588.374546,0.002049
2586.445802,0.001909
2584.517058,0.001829
2582.588314,0.001849
2580.65957,0.00187
2578.730826,0.001893
2576.802082,0.001968
2574.873338,0.002073
2572.944594,0.002153
2571.01585,0.002129
2569.087106,0.001964
2567.158362,0.001849
2565.229618,0.001921
2563.300874,0.002005
2561.372129,0.00203
2559.443385,0.002071
2557.514641,0.002074
2555.585897,0.002037
2553.657153,0.001993
2551.728409,0.001868
2549.799665,0.001665
2547.870921,0.001549
2545.942177,0.001591
2544.013433,0.001599
2542.084689,0.001496
2540.155945,0.001468
2538.227201,0.001627
2536.298456,0.00185
2534.369712,0.001834
2532.440968,0.001587
2530.512224,0.001537
2528.58348,0.001751
2526.654736,0.001913
2524.725992,0.001868
2522.797248,0.001735
2520.868504,0.001687
2518.93976,0.001671
2517.011016,0.001596
2515.082272,0.001559
2513.153528,0.001671
2511.224784,0.001846
2509.296039,0.001886
2507.367295,0.001751
2505.438551,0.001569
2503.509807,0.001525
2501.581063,0.001625
2499.652319,0.001657
2497.723575,0.001556
2495.794831,0.00138
2493.866087,0.001185
2491.937343,0.001112
2490.008599,0.001202
2488.079855,0.001341
2486.151111,0.00149
2484.222366,0.001639
2482.293622,0.00171
2480.364878,0.001707
2478.436134,0.001717
2476.50739,0.001769
2474.578646,0.001774
2472.649902,0.001683
2470.721158,0.001612
2468.792414,0.001657
2466.86367,0.001706
2464.934926,0.001551
2463.006182,0.001252
2461.077438,0.001168
2459.148694,0.001431
2457.219949,0.001759
2455.291205,0.001862
2453.362461,0.001817
2451.433717,0.001818
2449.504973,0.001838
2447.576229,0.001757
2445.647485,0.001564
2443.718741,0.001428
2441.789997,0.001516
2439.861253,0.001689
2437.932509,0.001646
2436.003765,0.001476
2434.075021,0.001462
2432.146277,0.001515
2430.217532,0.001481
2428.288788,0.001426
2426.360044,0.001446
2424.4313,0.001614
2422.502556,0.001842
2420.573812,0.001864
2418.645068,0.001616
2416.716324,0.001376
2414.78758,0.001358
2412.858836,0.001441
2410.930092,0.00146
2409.001348,0.001461
2407.072604,0.001504
2405.143859,0.00148
2403.215115,0.001387
2401.286371,0.001335
2399.357627,0.001322
2397.428883,0.001367
2395.500139,0.001451
2393.571395,0.001487
2391.642651,0.001541
2389.713907,0.001647
2387.785163,0.001697
2385.856419,0.00168
2383.927675,0.001685
2381.998931,0.001752
2380.070187,0.001865
2378.141442,0.001959
2376.212698,0.002022
2374.283954,0.002161
2372.35521,0.002426
2370.426466,0.002721
2368.497722,0.002928
2366.568978,0.003035
2364.640234,0.003165
2362.71149,0.003377
2360.782746,0.003534
2358.854002,0.00347
2356.925258,0.003188
2354.996514,0.00286
2353.06777,0.002616
2351.139025,0.002399
2349.210281,0.002221
2347.281537,0.002268
2345.352793,0.002524
2343.424049,0.00276
2341.495305,0.002882
2339.566561,0.002961
2337.637817,0.003074
2335.709073,0.003183
2333.780329,0.003186
2331.851585,0.003093
2329.922841,0.003001
2327.994097,0.002975
2326.065352,0.002988
2324.136608,0.002922
2322.207864,0.002717
2320.27912,0.002489
2318.350376,0.00238
2316.421632,0.002323
2314.492888,0.002179
2312.564144,0.002039
2310.6354,0.002002
2308.706656,0.001968
2306.777912,0.001898
2304.849168,0.001831
2302.920424,0.001786
2300.99168,0.001722
2299.062935,0.001564
2297.134191,0.001415
2295.205447,0.00148
2293.276703,0.001728
2291.347959,0.001877
2289.419215,0.001815
2287.490471,0.001704
2285.561727,0.001508
2283.632983,0.00119
2281.704239,0.001025
2279.775495,0.001044
2277.846751,0.001045
2275.918007,0.000991
2273.989262,0.00095
2272.060518,0.001054
2270.131774,0.001191
2268.20303,0.001085
2266.274286,0.000843
2264.345542,0.000687
2262.416798,0.000688
2260.488054,0.000862
2258.55931,0.001105
2256.630566,0.00117
2254.701822,0.000827
2252.773078,0.000323
2250.844334,0.000246
2248.91559,0.000638
2246.986845,0.000916
2245.058101,0.000887
2243.129357,0.000995
2241.200613,0.001308
2239.271869,0.001443
2237.343125,0.001309
2235.414381,0.001089
2233.485637,0.00083
2231.556893,0.000431
2229.628149,9.4e-05
2227.699405,5.4e-05
2225.770661,0.000161
2223.841917,0.000297
2221.913173,0.000468
2219.984428,0.000504
2218.055684,0.000393
2216.12694,0.000493
2214.198196,0.000596
2212.269452,0.000273
2210.340708,0.000128
2208.411964,0.000356
2206.48322,0.000234
2204.554476,-0.000175
2202.625732,-0.000298
2200.696988,-1.3e-05
2198.768244,0.00032
2196.8395,0.000336
2194.910755,0.000373
2192.982011,0.000588
2191.053267,0.000432
2189.124523,0.000106
2187.195779,0.000319
2185.267035,0.000941
2183.338291,0.001412
2181.409547,0.001403
2179.480803,0.001032
2177.552059,0.000654
2175.623315,0.000384
2173.694571,0.000141
2171.765827,-7.1e-05
2169.837083,-8.6e-05
2167.908338,0.000112
2165.979594,0.000262
2164.05085,0.000206
2162.122106,-2.1e-05
2160.193362,-0.000333
2158.264618,-0.000576
2156.335874,-0.000668
2154.40713,-0.000767
2152.478386,-0.000824
2150.549642,-0.000547
2148.620898,-0.000138
2146.692154,5e-05
2144.76341,6.1e-05
2142.834666,-9e-06
2140.905921,-2e-05
2138.977177,3.5e-05
2137.048433,4.1e-05
2135.119689,0.000175
2133.190945,0.000408
2131.262201,0.000501
2129.333457,0.000555
2127.404713,0.000641
2125.475969,0.00073
2123.547225,0.000864
2121.618481,0.000929
2119.689737,0.00086
2117.760993,0.000837
2115.832248,0.000896
2113.903504,0.000907
2111.97476,0.00073
2110.046016,0.000262
2108.117272,-0.000164
2106.188528,-0.000141
2104.259784,0.000254
2102.33104,0.000833
2100.402296,0.001243
2098.473552,0.001173
2096.544808,0.000887
2094.616064,0.000665
2092.68732,0.000538
2090.758576,0.000637
2088.829831,0.000973
2086.901087,0.001247
2084.972343,0.001232
2083.043599,0.000987
2081.114855,0.000841
2079.186111,0.000985
2077.257367,0.001032
2075.328623,0.000787
2073.399879,0.00063
2071.471135,0.000771
2069.542391,0.001029
2067.613647,0.001137
2065.684903,0.001073
2063.756158,0.000965
2061.827414,0.000798
2059.89867,0.000585
2057.969926,0.000487
2056.041182,0.000495
2054.112438,0.000436
2052.183694,0.000479
2050.25495,0.000751
2048.326206,0.000818
2046.397462,0.000455
2044.468718,-4.3e-05
2042.539974,-0.000284
2040.61123,-0.000118
2038.682486,3.1e-05
2036.753741,3.8e-05
2034.824997,0.000261
2032.896253,0.000446
2030.967509,0.000311
2029.038765,0.0001
2027.110021,-5.1e-05
2025.181277,-8.4e-05
2023.252533,-0.000167
2021.323789,-0.000414
2019.395045,-0.000428
2017.466301,-0.00014
2015.537557,0.000187
2013.608813,0.000567
2011.680069,0.000811
2009.751324,0.000667
2007.82258,0.000371
2005.893836,0.000332
2003.965092,0.000475
2002.036348,0.000371
2000.107604,1.7e-05
1998.17886,-0.000134
1996.250116,0.000146
1994.321372,0.000529
1992.392628,0.00062
1990.463884,0.000567
1988.53514,0.000795
1986.606396,0.001191
1984.677651,0.001102
1982.748907,0.000529
1980.820163,7.2e-05
1978.891419,-0.000147
1976.962675,-0.000139
1975.033931,-6.8e-05
1973.105187,-0.000342
1971.176443,-0.000659
1969.247699,-0.000499
1967.318955,-2.7e-05
1965.390211,0.000321
1963.461467,0.000414
1961.532723,0.00065
1959.603979,0.001173
1957.675234,0.001295
1955.74649,0.000916
1953.817746,0.000686
1951.889002,0.000712
1949.960258,0.00087
1948.031514,0.001039
1946.10277,0.000951
1944.174026,0.00068
1942.245282,0.000381
1940.316538,0.000116
1938.387794,0.00011
1936.45905,0.000343
1934.530306,0.000478
1932.601562,0.00037
1930.672817,0.000219
1928.744073,0.000304
1926.815329,0.000618
1924.886585,0.000816
1922.957841,0.0007
1921.029097,0.000551
1919.100353,0.000657
1917.171609,0.000855
1915.242865,0.000874
1913.314121,0.000697
1911.385377,0.00058
1909.456633,0.000666
1907.527889,0.000722
1905.599144,0.000659
1903.6704,0.000658
1901.741656,0.000728
1899.812912,0.000756
1897.884168,0.000731
1895.955424,0.000682
1894.02668,0.000663
1892.097936,0.000796
1890.169192,0.000994
1888.240448,0.000979
1886.311704,0.000817
1884.38296,0.000843
1882.454216,0.001044
1880.525472,0.001081
1878.596727,0.000917
1876.667983,0.000872
1874.739239,0.001081
1872.810495,0.001318
1870.881751,0.001378
1868.953007,0.001263
1867.024263,0.001006
1865.095519,0.000762
1863.166775,0.000761
1861.238031,0.001028
1859.309287,0.001273
1857.380543,0.001212
1855.451799,0.001028
1853.523055,0.001012
1851.59431,0.00109
1849.665566,0.001071
1847.736822,0.000992
1845.808078,0.001019
1843.879334,0.001161
1841.95059,0.001256
1840.021846,0.001186
1838.093102,0.000991
1836.164358,0.0008
1834.235614,0.000719
1832.30687,0.000796
1830.378126,0.000943
1828.449382,0.001035
1826.520637,0.001088
1824.591893,0.001107
1822.663149,0.001058
1820.734405,0.001024
1818.805661,0.00106
1816.876917,0.001091
1814.948173,0.001042
1813.019429,0.000944
1811.090685,0.000909
1809.161941,0.000954
1807.233197,0.001
1805.304453,0.001043
1803.375709,0.001122
1801.446965,0.001233
1799.51822,0.001333
1797.589476,0.001379
1795.660732,0.001371
1793.731988,0.001349
1791.803244,0.001325
1789.8745,0.001266
1787.945756,0.001222
1786.017012,0.001201
1784.088268,0.001143
1782.159524,0.001121
1780.23078,0.001181
1778.302036,0.001231
1776.373292,0.001266
1774.444547,0.001338
1772.515803,0.001406
1770.587059,0.001435
1768.658315,0.001409
1766.729571,0.001304
1764.800827,0.001217
1762.872083,0.001205
1760.943339,0.001205
1759.014595,0.001234
1757.085851,0.001277
1755.157107,0.001268
1753.228363,0.001305
1751.299619,0.001445
1749.370875,0.001561
1747.44213,0.001597
1745.513386,0.001607
1743.584642,0.001641
1741.655898,0.001706
1739.727154,0.001749
1737.79841,0.001754
1735.869666,0.001799
1733.940922,0.001884
1732.012178,0.001926
1730.083434,0.00196
1728.15469,0.001979
1726.225946,0.001902
1724.297202,0.001774
1722.368458,0.00168
1720.439713,0.001683
1718.510969,0.001776
1716.582225,0.001875
1714.653481,0.001919
1712.724737,0.00189
1710.795993,0.001824
1708.867249,0.001832
1706.938505,0.001942
1705.009761,0.002088
1703.081017,0.002305
1701.152273,0.002561
1699.223529,0.002745
1697.294785,0.002929
1695.36604,0.003116
1693.437296,0.003233
1691.508552,0.003391
1689.579808,0.003663
1687.651064,0.004008
1685.72232,0.004362
1683.793576,0.0046
1681.864832,0.00471
1679.936088,0.00485
1678.007344,0.005075
1676.0786,0.005304
1674.149856,0.005471
1672.221112,0.005612
1670.292368,0.005785
1668.363623,0.005985
1666.434879,0.006264
1664.506135,0.006637
1662.577391,0.006998
1660.648647,0.007308
1658.719903,0.00762
1656.791159,0.007982
1654.862415,0.008423
1652.933671,0.008809
1651.004927,0.008991
1649.076183,0.009123
1647.147439,0.009254
1645.218695,0.009174
1643.289951,0.008916
1641.361206,0.008751
1639.432462,0.008753
1637.503718,0.008766
1635.574974,0.008625
1633.64623,0.008349
1631.717486,0.008123
1629.788742,0.00803
1627.859998,0.007958
1625.931254,0.007857
1624.00251,0.007759
1622.073766,0.007609
1620.145022,0.007427
1618.216278,0.007292
1616.287533,0.007137
1614.358789,0.006925
1612.430045,0.006743
1610.501301,0.006616
1608.572557,0.006544
1606.643813,0.00652
1604.715069,0.006489
1602.786325,0.006454
1600.857581,0.006442
1598.928837,0.006448
1597.000093,0.006463
1595.071349,0.006469
1593.142605,0.006454
1591.213861,0.006406
1589.285116,0.006359
1587.356372,0.006354
1585.427628,0.006363
1583.498884,0.006351
1581.57014,0.006317
1579.641396,0.006331
1577.712652,0.006436
1575.783908,0.006485
1573.855164,0.006415
1571.92642,0.006393
1569.997676,0.006416
1568.068932,0.006369
1566.140188,0.006325
1564.211443,0.006378
1562.282699,0.006556
1560.353955,0.006857
1558.425211,0.007118
1556.496467,0.007241
1554.567723,0.007335
1552.638979,0.007423
1550.710235,0.007493
1548.781491,0.007603
1546.852747,0.007763
1544.924003,0.00791
1542.995259,0.008025
1541.066515,0.008105
1539.137771,0.00803
1537.209026,0.007814
1535.280282,0.007643
1533.351538,0.007514
1531.422794,0.00735
1529.49405,0.007242
1527.565306,0.007232
1525.636562,0.007205
1523.707818,0.007138
1521.779074,0.007076
1519.85033,0.006985
1517.921586,0.006873
1515.992842,0.006755
1514.064098,0.006584
1512.135354,0.006366
1510.206609,0.006191
1508.277865,0.006105
1506.349121,0.005973
1504.420377,0.005707
1502.491633,0.005432
1500.562889,0.005245
1498.634145,0.005136
1496.705401,0.005018
1494.776657,0.004842
1492.847913,0.0047
1490.919169,0.004647
1488.990425,0.004615
1487.061681,0.004529
1485.132936,0.004392
1483.204192,0.004279
1481.275448,0.004272
1479.346704,0.004356
1477.41796,0.004443
1475.489216,0.004509
1473.560472,0.004604
1471.631728,0.004697
1469.702984,0.00475
1467.77424,0.004807
1465.845496,0.00489
1463.916752,0.004945
1461.988008,0.004967
1460.059264,0.005067
1458.130519,0.00526
1456.201775,0.005314
1454.273031,0.005148
1452.344287,0.004983
1450.415543,0.004946
1448.486799,0.004993
1446.558055,0.005009
1444.629311,0.004939
1442.700567,0.004863
1440.771823,0.004844
1438.843079,0.004866
1436.914335,0.004853
1434.985591,0.004732
1433.056847,0.004606
1431.128102,0.004595
1429.199358,0.004653
1427.270614,0.004707
1425.34187,0.004749
1423.413126,0.004828
1421.484382,0.004979
1419.555638,0.005118
1417.626894,0.005157
1415.69815,0.005155
1413.769406,0.005169
1411.840662,0.005179
1409.911918,0.005172
1407.983174,0.005156
1406.054429,0.00515
1404.125685,0.005153
1402.196941,0.005164
1400.268197,0.005183
1398.339453,0.005182
1396.410709,0.005151
1394.481965,0.005097
1392.553221,0.005025
1390.624477,0.004961
1388.695733,0.004922
1386.766989,0.004884
1384.838245,0.004821
1382.909501,0.004749
1380.980757,0.004709
1379.052012,0.004692
1377.123268,0.004659
1375.194524,0.004586
1373.26578,0.004479
1371.337036,0.004415
1369.408292,0.004437
1367.479548,0.004485
1365.550804,0.004521
1363.62206,0.004546
1361.693316,0.004537
1359.764572,0.004489
1357.835828,0.004407
1355.907084,0.004302
1353.97834,0.004236
1352.049595,0.004225
1350.120851,0.004206
1348.192107,0.004162
1346.263363,0.00414
1344.334619,0.004136
1342.405875,0.004135
1340.477131,0.004146
1338.548387,0.004172
1336.619643,0.004196
1334.690899,0.004185
1332.762155,0.004146
1330.833411,0.004111
1328.904667,0.004074
1326.975922,0.004028
1325.047178,0.004027
1323.118434,0.004087
1321.18969,0.004122
1319.260946,0.00412
1317.332202,0.004159
1315.403458,0.004209
1313.474714,0.004214
1311.54597,0.004217
1309.617226,0.004252
1307.688482,0.004276
1305.759738,0.004254
1303.830994,0.00421
1301.90225,0.004171
1299.973505,0.004141
1298.044761,0.004122
1296.116017,0.004098
1294.187273,0.004074
1292.258529,0.004066
1290.329785,0.00405
1288.401041,0.004024
1286.472297,0.004035
1284.543553,0.004088
1282.614809,0.004119
1280.686065,0.004123
1278.757321,0.004163
1276.828577,0.004225
1274.899832,0.004242
1272.971088,0.004263
1271.042344,0.004392
1269.1136,0.004639
1267.184856,0.004917
1265.256112,0.005153
1263.327368,0.005355
1261.398624,0.005492
1259.46988,0.005472
1257.541136,0.005328
1255.612392,0.005144
1253.683648,0.00494
1251.754904,0.004791
1249.82616,0.004727
1247.897415,0.004649
1245.968671,0.004559
1244.039927,0.004544
1242.111183,0.004563
1240.182439,0.004554
1238.253695,0.004548
1236.324951,0.004551
1234.396207,0.004523
1232.467463,0.004443
1230.538719,0.004343
1228.609975,0.004305
1226.681231,0.004306
1224.752487,0.00423
1222.823743,0.004067
1220.894998,0.003936
1218.966254,0.003915
1217.03751,0.003948
1215.108766,0.003941
1213.180022,0.003876
1211.251278,0.003802
1209.322534,0.003774
1207.39379,0.003785
1205.465046,0.003757
1203.536302,0.003687
1201.607558,0.003647
1199.678814,0.003639
1197.75007,0.003603
1195.821325,0.003528
1193.892581,0.00347
1191.963837,0.003439
1190.035093,0.003393
1188.106349,0.00337
1186.177605,0.003435
1184.248861,0.003524
1182.320117,0.003546
1180.391373,0.003518
1178.462629,0.003498
1176.533885,0.003504
1174.605141,0.003532
1172.676397,0.003578
1170.747653,0.003648
1168.818908,0.003739
1166.890164,0.003804
1164.96142,0.00378
1163.032676,0.003692
1161.103932,0.003644
1159.175188,0.003721
1157.246444,0.003857
1155.3177,0.003894
1153.388956,0.00383
1151.460212,0.003759
1149.531468,0.003713
1147.602724,0.0037
1145.67398,0.003701
1143.745236,0.003696
1141.816491,0.003716
1139.887747,0.003787
1137.959003,0.003873
1136.030259,0.003934
1134.101515,0.004018
1132.172771,0.004176
1130.244027,0.004354
1128.315283,0.004507
1126.386539,0.004653
1124.457795,0.0048
1122.529051,0.004953
1120.600307,0.005076
1118.671563,0.00512
1116.742818,0.005116
1114.814074,0.005126
1112.88533,0.005119
1110.956586,0.005081
1109.027842,0.005089
1107.099098,0.00513
1105.170354,0.005149
1103.24161,0.005142
1101.312866,0.005124
1099.384122,0.005172
1097.455378,0.005285
1095.526634,0.005304
1093.59789,0.005199
1091.669146,0.005111
1089.740401,0.005121
1087.811657,0.005183
1085.882913,0.005224
1083.954169,0.005206
1082.025425,0.005127
1080.096681,0.005027
1078.167937,0.004962
1076.239193,0.004981
1074.310449,0.00504
1072.381705,0.005033
1070.452961,0.004972
1068.524217,0.004918
1066.595473,0.004859
1064.666728,0.004835
1062.737984,0.004853
1060.80924,0.004839
1058.880496,0.004792
1056.951752,0.00475
1055.023008,0.004795
1053.094264,0.005002
1051.16552,0.005265
1049.236776,0.005442
1047.308032,0.005528
1045.379288,0.005585
1043.450544,0.005675
1041.5218,0.005789
1039.593056,0.005855
1037.664311,0.00588
1035.735567,0.005931
1033.806823,0.006037
1031.878079,0.006205
1029.949335,0.006404
1028.020591,0.006564
1026.091847,0.006751
1024.163103,0.007113
1022.234359,0.00756
1020.305615,0.007828
1018.376871,0.0078
1016.448127,0.007532
1014.519383,0.007077
1012.590639,0.00643
1010.661894,0.005721
1008.73315,0.005155
1006.804406,0.004745
1004.875662,0.004396
1002.946918,0.004129
1001.018174,0.004021
999.08943,0.00399
997.160686,0.003844
995.231942,0.003577
993.303198,0.003353
991.374454,0.003225
989.44571,0.003119
987.516966,0.003014
985.588221,0.002962
983.659477,0.002993
981.730733,0.003046
979.801989,0.003029
977.873245,0.002952
975.944501,0.002914
974.015757,0.00291
972.087013,0.002868
970.158269,0.002814
968.229525,0.002793
966.300781,0.00276
964.372037,0.002685
962.443293,0.002625
960.514549,0.002626
958.585804,0.0027
956.65706,0.002817
954.728316,0.002832
952.799572,0.002693
950.870828,0.002572
948.942084,0.002567
947.01334,0.002594
945.084596,0.00258
943.155852,0.002567
941.227108,0.002597
939.298364,0.002615
937.36962,0.002625
935.440876,0.002716
933.512132,0.002844
931.583387,0.002871
929.654643,0.002784
927.725899,0.002684
925.797155,0.002644
923.868411,0.002636
921.939667,0.00259
920.010923,0.002515
918.082179,0.002464
916.153435,0.002442
914.224691,0.002461
912.295947,0.002515
910.367203,0.002516
908.438459,0.002482
906.509714,0.002492
904.58097,0.002499
902.652226,0.00252
900.723482,0.002621
898.794738,0.002647
896.865994,0.002575
894.93725,0.002602
893.008506,0.00269
891.079762,0.002745
889.151018,0.002828
887.222274,0.002843
885.29353,0.002693
883.364786,0.002569
881.436042,0.002628
879.507297,0.002736
877.578553,0.002806
875.649809,0.002895
873.721065,0.002909
871.792321,0.002763
869.863577,0.002612
867.934833,0.002621
866.006089,0.002733
864.077345,0.002765
862.148601,0.002678
860.219857,0.002644
858.291113,0.002735
856.362369,0.002821
854.433625,0.00285
852.50488,0.002845
850.576136,0.0028
848.647392,0.002748
846.718648,0.002725
844.789904,0.002737
842.86116,0.002807
840.932416,0.00288
839.003672,0.002906
837.074928,0.002978
835.146184,0.003132
833.21744,0.003249
831.288696,0.003261
829.359952,0.00329
827.431207,0.003483
825.502463,0.003706
823.573719,0.003709
821.644975,0.003572
819.716231,0.003557
817.787487,0.003667
815.858743,0.003743
813.929999,0.003816
812.001255,0.003967
810.072511,0.004104
808.143767,0.004162
806.215023,0.004161
804.286279,0.004141
802.357535,0.004205
800.42879,0.00435
798.500046,0.004453
796.571302,0.004496
794.642558,0.004425
792.713814,0.004179
790.78507,0.003949
788.856326,0.003889
786.927582,0.003899
784.998838,0.003871
783.070094,0.003769
781.14135,0.003609
779.212606,0.003473
777.283862,0.00342
775.355117,0.003428
773.426373,0.003419
771.497629,0.003333
769.568885,0.003236
767.640141,0.003225
765.711397,0.003247
763.782653,0.003299
761.853909,0.00348
759.925165,0.003658
757.996421,0.003656
756.067677,0.003633
754.138933,0.003696
752.210189,0.003653
750.281445,0.003472
748.3527,0.003346
746.423956,0.003376
744.495212,0.003521
742.566468,0.003666
740.637724,0.003723
738.70898,0.003663
736.780236,0.003515
734.851492,0.003456
732.922748,0.003583
730.994004,0.003713
729.06526,0.003728
727.136516,0.003688
725.207772,0.003646
723.279028,0.003611
721.350283,0.003586
719.421539,0.003648
717.492795,0.003795
715.564051,0.00383
713.635307,0.003739
711.706563,0.003721
709.777819,0.003813
707.849075,0.003948
705.920331,0.004102
703.991587,0.004271
702.062843,0.004479
700.134099,0.004624
698.205355,0.004586
696.27661,0.004519
694.347866,0.004537
692.419122,0.004516
690.490378,0.004433
688.561634,0.004429
686.63289,0.004512
684.704146,0.004514
682.775402,0.004448
680.846658,0.004521
678.917914,0.004711
676.98917,0.00476
675.060426,0.004652
673.131682,0.004653
671.202938,0.00495
669.274193,0.005424
667.345449,0.005567
665.416705,0.005214
663.487961,0.004927
661.559217,0.004967
659.630473,0.00491
657.701729,0.004494
655.772985,0.004127
653.844241,0.004203
651.915497,0.004456
649.986753,0.004485
648.058009,0.004327
646.129265,0.004289
644.200521,0.004515
642.271776,0.00477
640.343032,0.004773
638.414288,0.004551
636.485544,0.004356
634.5568,0.00435
632.628056,0.004502
630.699312,0.004839
628.770568,0.005197
626.841824,0.005068
624.91308,0.004593
622.984336,0.00453
621.055592,0.004861
619.126848,0.004966
617.198103,0.004733
615.269359,0.004608
613.340615,0.00488
611.411871,0.005264
609.483127,0.005362
607.554383,0.005132
605.625639,0.004783
603.696895,0.00462
601.768151,0.004669
599.839407,0.004707
597.910663,0.004725
595.981919,0.004788
594.053175,0.004836
592.124431,0.004781
590.195686,0.004692
588.266942,0.004727
586.338198,0.004679
584.409454,0.004509
582.48071,0.004553
580.551966,0.004675
578.623222,0.004528
576.694478,0.004316
574.765734,0.004458
572.83699,0.004873
570.908246,0.005279
568.979502,0.005481
567.050758,0.005323
565.122013,0.005102
563.193269,0.005086
561.264525,0.005068
559.335781,0.004971
557.407037,0.004931
555.478293,0.005017
553.549549,0.005206
551.620805,0.005297
549.692061,0.005049
547.763317,0.004753
545.834573,0.0049
543.905829,0.005215
541.977085,0.005175
540.048341,0.004864
538.119596,0.004697
536.190852,0.004846
534.262108,0.005037
532.333364,0.004936
530.40462,0.004654
528.475876,0.00459
526.547132,0.004738
524.618388,0.004768
522.689644,0.004691
520.7609,0.004653
518.832156,0.004623
516.903412,0.004678
514.974668,0.0049
513.045924,0.005114
511.117179,0.005033
509.188435,0.004599
507.259691,0.004257
505.330947,0.004402
503.402203,0.004707
501.473459,0.004684
499.544715,0.004396
497.615971,0.004234
495.687227,0.004419
493.758483,0.004766
491.829739,0.004901
489.900995,0.004925
487.972251,0.005099
486.043506,0.00491
484.114762,0.004196
482.186018,0.003948
480.257274,0.004483
478.32853,0.004926
476.399786,0.004881
474.471042,0.00478
472.542298,0.004805
470.613554,0.00481
468.68481,0.00491
466.756066,0.005362
464.827322,0.005944
462.898578,0.006039
460.969834,0.005677
459.041089,0.005326
457.112345,0.00517
455.183601,0.005429
453.254857,0.006034
451.326113,0.006444
449.397369,0.006335
447.468625,0.005844
445.539881,0.005237
443.611137,0.004451
441.682393,0.003329
439.753649,0.002423
437.824905,0.002376
435.896161,0.002851
433.967417,0.003476
432.038672,0.004433
430.109928,0.005492
428.181184,0.005692
426.25244,0.004454
424.323696,0.002647
422.394952,0.001619
420.466208,0.002256
418.537464,0.004072
416.60872,0.005132
414.679976,0.005063
412.751232,0.004507
410.822488,0.003687
408.893744,0.003262
406.964999,0.002835
405.036255,0.002067
403.107511,0.00287
401.178767,0.005158
399.250023,0.005592
