3996.35772,0.020775
3994.428976,0.020714
3992.500232,0.020681
3990.571488,0.020729
3988.642744,0.020764
3986.714,0.020704
3984.785256,0.020661
3982.856511,0.020773
3980.927767,0.020992
3978.999023,0.021169
3977.070279,0.021213
3975.141535,0.021247
3973.212791,0.021394
3971.284047,0.021442
3969.355303,0.021257
3967.426559,0.021075
3965.497815,0.021037
3963.569071,0.021008
3961.640327,0.020986
3959.711583,0.021037
3957.782839,0.021049
3955.854094,0.021025
3953.92535,0.021103
3951.996606,0.02126
3950.067862,0.021329
3948.139118,0.021211
3946.210374,0.021053
3944.28163,0.021076
3942.352886,0.021226
3940.424142,0.021239
3938.495398,0.021116
3936.566654,0.021058
3934.63791,0.021113
3932.709166,0.021217
3930.780422,0.021283
3928.851677,0.021294
3926.922933,0.021232
3924.994189,0.020964
3923.065445,0.020641
3921.136701,0.020632
3919.207957,0.020871
3917.279213,0.021086
3915.350469,0.021243
3913.421725,0.02121
3911.492981,0.020993
3909.564237,0.020952
3907.635493,0.021062
3905.706749,0.021018
3903.778004,0.020987
3901.84926,0.021271
3899.920516,0.021635
3897.991772,0.021639
3896.063028,0.021374
3894.134284,0.021225
3892.20554,0.02121
3890.276796,0.021159
3888.348052,0.021093
3886.419308,0.021065
3884.490564,0.021039
3882.56182,0.021028
3880.633076,0.021033
3878.704332,0.020985
3876.775587,0.020986
3874.846843,0.021192
3872.918099,0.021504
3870.989355,0.021693
3869.060611,0.021628
3867.131867,0.021377
3865.203123,0.021134
3863.274379,0.02102
3861.345635,0.02102
3859.416891,0.021107
3857.488147,0.02127
3855.559403,0.021422
3853.630659,0.021476
3851.701915,0.021401
3849.77317,0.021202
3847.844426,0.021011
3845.915682,0.021013
3843.986938,0.021181
3842.058194,0.021356
3840.12945,0.021448
3838.200706,0.0214
3836.271962,0.021331
3834.343218,0.021384
3832.414474,0.021343
3830.48573,0.021079
3828.556986,0.020855
3826.628242,0.020823
3824.699497,0.02081
3822.770753,0.0208
3820.842009,0.020963
3818.913265,0.021231
3816.984521,0.021447
3815.055777,0.021563
3813.127033,0.021617
3811.198289,0.021602
3809.269545,0.021487
3807.340801,0.021422
3805.412057,0.021444
3803.483313,0.021364
3801.554569,0.021173
3799.625825,0.021024
3797.69708,0.02096
3795.768336,0.020988
3793.839592,0.021139
3791.910848,0.021194
3789.982104,0.020954
3788.05336,0.020732
3786.124616,0.02092
3784.195872,0.021291
3782.267128,0.021398
3780.338384,0.021302
3778.40964,0.021281
3776.480896,0.021318
3774.552152,0.021286
3772.623408,0.021224
3770.694663,0.02123
3768.765919,0.021282
3766.837175,0.021278
3764.908431,0.021126
3762.979687,0.020915
3761.050943,0.020868
3759.122199,0.020979
3757.193455,0.021109
3755.264711,0.021227
3753.335967,0.021319
3751.407223,0.021394
3749.478479,0.021483
3747.549735,0.021515
3745.62099,0.021441
3743.692246,0.021245
3741.763502,0.021051
3739.834758,0.021125
3737.906014,0.021343
3735.97727,0.021327
3734.048526,0.021106
3732.119782,0.020887
3730.191038,0.020756
3728.262294,0.020851
3726.33355,0.021149
3724.404806,0.021333
3722.476062,0.021237
3720.547318,0.020991
3718.618573,0.020785
3716.689829,0.02076
3714.761085,0.020964
3712.832341,0.021302
3710.903597,0.021533
3708.974853,0.021496
3707.046109,0.021345
3705.117365,0.021293
3703.188621,0.021307
3701.259877,0.021463
3699.331133,0.022032
3697.402389,0.022791
3695.473645,0.023263
3693.5449,0.023463
3691.616156,0.023555
3689.687412,0.023455
3687.758668,0.023137
3685.829924,0.02281
3683.90118,0.022674
3681.972436,0.022694
3680.043692,0.022709
3678.114948,0.022655
3676.186204,0.02256
3674.25746,0.022544
3672.328716,0.022618
3670.399972,0.022621
3668.471228,0.022631
3666.542483,0.022792
3664.613739,0.022915
3662.684995,0.022863
3660.756251,0.022806
3658.827507,0.022862
3656.898763,0.022935
3654.970019,0.023075
3653.041275,0.023399
3651.112531,0.023704
3649.183787,0.023779
3647.255043,0.023763
3645.326299,0.02377
3643.397555,0.023814
3641.468811,0.023922
3639.540066,0.02393
3637.611322,0.023852
3635.682578,0.023996
3633.753834,0.024296
3631.82509,0.024429
3629.896346,0.024329
3627.967602,0.024138
3626.038858,0.024139
3624.110114,0.024444
3622.18137,0.024808
3620.252626,0.025069
3618.323882,0.025315
3616.395138,0.025518
3614.466393,0.025581
3612.537649,0.025547
3610.608905,0.025563
3608.680161,0.025694
3606.751417,0.025769
3604.822673,0.025655
3602.893929,0.02548
3600.965185,0.025379
3599.036441,0.02535
3597.107697,0.025404
3595.178953,0.025582
3593.250209,0.025781
3591.321465,0.025897
3589.392721,0.026104
3587.463976,0.026446
3585.535232,0.026556
3583.606488,0.02642
3581.677744,0.026439
3579.749,0.026519
3577.820256,0.026398
3575.891512,0.026366
3573.962768,0.026646
3572.034024,0.026923
3570.10528,0.026995
3568.176536,0.027103
3566.247792,0.027367
3564.319048,0.027594
3562.390304,0.027791
3560.461559,0.028066
3558.532815,0.028297
3556.604071,0.028378
3554.675327,0.028337
3552.746583,0.028312
3550.817839,0.028475
3548.889095,0.028757
3546.960351,0.028934
3545.031607,0.028962
3543.102863,0.028964
3541.174119,0.029025
3539.245375,0.029151
3537.316631,0.029374
3535.387886,0.029681
3533.459142,0.029951
3531.530398,0.03007
3529.601654,0.030003
3527.67291,0.029839
3525.744166,0.029804
3523.815422,0.030021
3521.886678,0.030327
3519.957934,0.030495
3518.02919,0.030572
3516.100446,0.030653
3514.171702,0.030604
3512.242958,0.030517
3510.314214,0.030686
3508.385469,0.030983
3506.456725,0.031187
3504.527981,0.031349
3502.599237,0.031362
3500.670493,0.031226
3498.741749,0.031282
3496.813005,0.031583
3494.884261,0.03194
3492.955517,0.032298
3491.026773,0.032551
3489.098029,0.032679
3487.169285,0.032765
3485.240541,0.032729
3483.311796,0.032615
3481.383052,0.032679
3479.454308,0.032915
3477.525564,0.033135
3475.59682,0.033323
3473.668076,0.033458
3471.739332,0.033507
3469.810588,0.033578
3467.881844,0.033769
3465.9531,0.034115
3464.024356,0.034506
3462.095612,0.034775
3460.166868,0.034903
3458.238124,0.034937
3456.309379,0.034977
3454.380635,0.035112
3452.451891,0.035321
3450.523147,0.035538
3448.594403,0.035671
3446.665659,0.03578
3444.736915,0.036058
3442.808171,0.036387
3440.879427,0.036512
3438.950683,0.036577
3437.021939,0.036802
3435.093195,0.037061
3433.164451,0.037222
3431.235707,0.037288
3429.306962,0.03731
3427.378218,0.037455
3425.449474,0.037737
3423.52073,0.037867
3421.591986,0.037764
3419.663242,0.037698
3417.734498,0.037752
3415.805754,0.03775
3413.87701,0.037672
3411.948266,0.037633
3410.019522,0.037645
3408.090778,0.037704
3406.162034,0.037784
3404.233289,0.037786
3402.304545,0.037786
3400.375801,0.037908
3398.447057,0.038035
3396.518313,0.03805
3394.589569,0.037995
3392.660825,0.03799
3390.732081,0.03814
3388.803337,0.038367
3386.874593,0.038454
3384.945849,0.038408
3383.017105,0.038392
3381.088361,0.038434
3379.159617,0.038506
3377.230872,0.038579
3375.302128,0.038627
3373.373384,0.038683
3371.44464,0.038761
3369.515896,0.038823
3367.587152,0.038866
3365.658408,0.03895
3363.729664,0.039092
3361.80092,0.03923
3359.872176,0.039294
3357.943432,0.039292
3356.014688,0.03931
3354.085944,0.03933
3352.1572,0.03928
3350.228455,0.039241
3348.299711,0.039368
3346.370967,0.039635
3344.442223,0.039858
3342.513479,0.03994
3340.584735,0.03998
3338.655991,0.040046
3336.727247,0.040071
3334.798503,0.04012
3332.869759,0.04031
3330.941015,0.04055
3329.012271,0.040744
3327.083527,0.040849
3325.154782,0.04082
3323.226038,0.040759
3321.297294,0.040792
3319.36855,0.040887
3317.439806,0.040973
3315.511062,0.041066
3313.582318,0.041166
3311.653574,0.041181
3309.72483,0.041109
3307.796086,0.041081
3305.867342,0.041227
3303.938598,0.041581
3302.009854,0.041914
3300.08111,0.042007
3298.152365,0.042041
3296.223621,0.042154
3294.294877,0.042191
3292.366133,0.04216
3290.437389,0.042151
3288.508645,0.042132
3286.579901,0.042143
3284.651157,0.042212
3282.722413,0.04226
3280.793669,0.042278
3278.864925,0.042268
3276.936181,0.042182
3275.007437,0.042047
3273.078692,0.041956
3271.149948,0.041931
3269.221204,0.041926
3267.29246,0.041914
3265.363716,0.041874
3263.434972,0.041756
3261.506228,0.041593
3259.577484,0.041461
3257.64874,0.041313
3255.719996,0.041065
3253.791252,0.04079
3251.862508,0.040702
3249.933764,0.040823
3248.00502,0.040902
3246.076275,0.040845
3244.147531,0.040766
3242.218787,0.040701
3240.290043,0.040644
3238.361299,0.040624
3236.432555,0.040624
3234.503811,0.040541
3232.575067,0.040321
3230.646323,0.040066
3228.717579,0.039972
3226.788835,0.040051
3224.860091,0.040056
3222.931347,0.039902
3221.002603,0.039801
3219.073858,0.039773
3217.145114,0.039679
3215.21637,0.039596
3213.287626,0.039546
3211.358882,0.039473
3209.430138,0.039491
3207.501394,0.039536
3205.57265,0.039398
3203.643906,0.039134
3201.715162,0.038919
3199.786418,0.038758
3197.857674,0.038647
3195.92893,0.038702
3194.000185,0.038847
3192.071441,0.038845
3190.142697,0.038705
3188.213953,0.038608
3186.285209,0.038557
3184.356465,0.038393
3182.427721,0.038122
3180.498977,0.037858
3178.570233,0.037651
3176.641489,0.037532
3174.712745,0.03751
3172.784001,0.037609
3170.855257,0.037728
3168.926513,0.037684
3166.997768,0.037547
3165.069024,0.037443
3163.14028,0.037322
3161.211536,0.037215
3159.282792,0.037215
3157.354048,0.037177
3155.425304,0.036937
3153.49656,0.036683
3151.567816,0.036624
3149.639072,0.036642
3147.710328,0.036558
3145.781584,0.0364
3143.85284,0.036241
3141.924096,0.036072
3139.995351,0.035969
3138.066607,0.036052
3136.137863,0.036207
3134.209119,0.036201
3132.280375,0.036036
3130.351631,0.035934
3128.422887,0.036007
3126.494143,0.03613
3124.565399,0.036072
3122.636655,0.035768
3120.707911,0.035486
3118.779167,0.03544
3116.850423,0.035503
3114.921678,0.035571
3112.992934,0.035694
3111.06419,0.035881
3109.135446,0.036018
3107.206702,0.036007
3105.277958,0.035972
3103.349214,0.036041
3101.42047,0.036073
3099.491726,0.035927
3097.562982,0.035693
3095.634238,0.035544
3093.705494,0.035588
3091.77675,0.035764
3089.848006,0.035941
3087.919261,0.036165
3085.990517,0.036468
3084.061773,0.036643
3082.133029,0.03658
3080.204285,0.036513
3078.275541,0.036592
3076.346797,0.036686
3074.418053,0.036745
3072.489309,0.036854
3070.560565,0.036986
3068.631821,0.037044
3066.703077,0.037038
3064.774333,0.036997
3062.845589,0.036921
3060.916844,0.036875
3058.9881,0.036871
3057.059356,0.036827
3055.130612,0.036778
3053.201868,0.036746
3051.273124,0.036611
3049.34438,0.036343
3047.415636,0.036126
3045.486892,0.036076
3043.558148,0.03608
3041.629404,0.036037
3039.70066,0.035966
3037.771916,0.035921
3035.843171,0.036012
3033.914427,0.036231
3031.985683,0.036467
3030.056939,0.036726
3028.128195,0.036984
3026.199451,0.037148
3024.270707,0.037234
3022.341963,0.037294
3020.413219,0.037412
3018.484475,0.037668
3016.555731,0.037984
3014.626987,0.038294
3012.698243,0.038633
3010.769499,0.038897
3008.840754,0.038968
3006.91201,0.038955
3004.983266,0.038952
3003.054522,0.03893
3001.125778,0.038936
2999.197034,0.038975
2997.26829,0.038938
2995.339546,0.038854
2993.410802,0.038811
2991.482058,0.03884
2989.553314,0.039035
2987.62457,0.039406
2985.695826,0.039867
2983.767081,0.040438
2981.838337,0.041173
2979.909593,0.042023
2977.980849,0.042935
2976.052105,0.0439
2974.123361,0.044897
2972.194617,0.04601
2970.265873,0.047349
2968.337129,0.048738
2966.408385,0.049967
2964.479641,0.051103
2962.550897,0.052217
2960.622153,0.053177
2958.693409,0.053818
2956.764664,0.054177
2954.83592,0.054392
2952.907176,0.054468
2950.978432,0.054358
2949.049688,0.054082
2947.120944,0.053834
2945.1922,0.053885
2943.263456,0.054288
2941.334712,0.054961
2939.405968,0.055867
2937.477224,0.056963
2935.54848,0.05826
2933.619736,0.059795
2931.690992,0.06145
2929.762247,0.063106
2927.833503,0.064819
2925.904759,0.066485
2923.976015,0.067779
2922.047271,0.068607
2920.118527,0.069049
2918.189783,0.069042
2916.261039,0.068443
2914.332295,0.067283
2912.403551,0.065853
2910.474807,0.064458
2908.546063,0.063171
2906.617319,0.061941
2904.688574,0.060728
2902.75983,0.059507
2900.831086,0.058306
2898.902342,0.057207
2896.973598,0.056201
2895.044854,0.055148
2893.11611,0.05402
2891.187366,0.052956
2889.258622,0.052113
2887.329878,0.051512
2885.401134,0.050939
2883.47239,0.05027
2881.543646,0.049651
2879.614902,0.049197
2877.686157,0.048958
2875.757413,0.049041
2873.828669,0.049393
2871.899925,0.049733
2869.971181,0.049947
2868.042437,0.050103
2866.113693,0.050185
2864.184949,0.050282
2862.256205,0.050615
2860.327461,0.051348
2858.398717,0.052505
2856.469973,0.053865
2854.541229,0.055176
2852.612485,0.056254
2850.68374,0.056784
2848.754996,0.056442
2846.826252,0.055232
2844.897508,0.053503
2842.968764,0.051651
2841.04002,0.049902
2839.111276,0.048317
2837.182532,0.046848
2835.253788,0.045479
2833.325044,0.04421
2831.3963,0.043001
2829.467556,0.041934
2827.538812,0.041116
2825.610067,0.040451
2823.681323,0.03982
2821.752579,0.039276
2819.823835,0.038895
2817.895091,0.038593
2815.966347,0.038257
2814.037603,0.037928
2812.108859,0.037663
2810.180115,0.037445
2808.251371,0.037238
2806.322627,0.037013
2804.393883,0.036827
2802.465139,0.03671
2800.536395,0.036586
2798.60765,0.036425
2796.678906,0.036227
2794.750162,0.035977
2792.821418,0.035757
2790.892674,0.035666
2788.96393,0.035642
2787.035186,0.035547
2785.106442,0.035381
2783.177698,0.03526
2781.248954,0.035217
2779.32021,0.035138
2777.391466,0.034953
2775.462722,0.034727
2773.533977,0.034556
2771.605233,0.034483
2769.676489,0.034452
2767.747745,0.034374
2765.819001,0.034282
2763.890257,0.03424
2761.961513,0.034253
2760.032769,0.034289
2758.104025,0.034281
2756.175281,0.034259
2754.246537,0.034268
2752.317793,0.034212
2750.389049,0.034081
2748.460305,0.033996
2746.53156,0.033996
2744.602816,0.034021
2742.674072,0.034016
2740.745328,0.033999
2738.816584,0.034025
2736.88784,0.034098
2734.959096,0.03416
2733.030352,0.034134
2731.101608,0.034021
2729.172864,0.03385
2727.24412,0.033643
2725.315376,0.033476
2723.386632,0.033454
2721.457888,0.03355
2719.529143,0.033601
2717.600399,0.033595
2715.671655,0.033615
2713.742911,0.033594
2711.814167,0.03346
2709.885423,0.033311
2707.956679,0.033259
2706.027935,0.033256
2704.099191,0.033219
2702.170447,0.033129
2700.241703,0.033034
2698.312959,0.03304
2696.384215,0.033171
2694.45547,0.033268
2692.526726,0.033233
2690.597982,0.033166
2688.669238,0.033137
2686.740494,0.033116
2684.81175,0.033121
2682.883006,0.033149
2680.954262,0.033142
2679.025518,0.033117
2677.096774,0.03314
2675.16803,0.033178
2673.239286,0.033148
2671.310542,0.033068
2669.381798,0.033034
2667.453053,0.033081
2665.524309,0.03315
2663.595565,0.033163
2661.666821,0.033064
2659.738077,0.032885
2657.809333,0.032746
2655.880589,0.032677
2653.951845,0.032585
2652.023101,0.03244
2650.094357,0.032333
2648.165613,0.032269
2646.236869,0.032141
2644.308125,0.031942
2642.379381,0.031782
2640.450636,0.031767
2638.521892,0.031811
2636.593148,0.031712
2634.664404,0.031502
2632.73566,0.031337
2630.806916,0.031205
2628.878172,0.031057
2626.949428,0.030911
2625.020684,0.03083
2623.09194,0.030843
2621.163196,0.030859
2619.234452,0.030748
2617.305708,0.030554
2615.376963,0.030418
2613.448219,0.030278
2611.519475,0.030101
2609.590731,0.030064
2607.661987,0.03015
2605.733243,0.030147
2603.804499,0.029975
2601.875755,0.029828
2599.947011,0.029907
2598.018267,0.030003
2596.089523,0.02988
2594.160779,0.02971
2592.232035,0.029681
2590.303291,0.029647
2588.374546,0.029383
2586.445802,0.029033
2584.517058,0.0289
2582.588314,0.028981
2580.65957,0.029125
2578.730826,0.029245
2576.802082,0.029278
2574.873338,0.02923
2572.944594,0.029163
2571.01585,0.029046
2569.087106,0.0288
2567.158362,0.028552
2565.229618,0.028495
2563.300874,0.028624
2561.372129,0.028838
2559.443385,0.028949
2557.514641,0.028838
2555.585897,0.028633
2553.657153,0.02841
2551.728409,0.028212
2549.799665,0.028131
2547.870921,0.028106
2545.942177,0.028083
2544.013433,0.028068
2542.084689,0.028028
2540.155945,0.027958
2538.227201,0.02792
2536.298456,0.027942
2534.369712,0.027982
2532.440968,0.02807
2530.512224,0.028245
2528.58348,0.028379
2526.654736,0.028404
2524.725992,0.028369
2522.797248,0.028346
2520.868504,0.028338
2518.93976,0.028181
2517.011016,0.027912
2515.082272,0.027859
2513.153528,0.028056
2511.224784,0.028175
2509.296039,0.028046
2507.367295,0.027857
2505.438551,0.027843
2503.509807,0.02797
2501.581063,0.028043
2499.652319,0.027977
2497.723575,0.027825
2495.794831,0.027686
2493.866087,0.027608
2491.937343,0.027604
2490.008599,0.027672
2488.079855,0.027783
2486.151111,0.027881
2484.222366,0.027844
2482.293622,0.027655
2480.364878,0.02756
2478.436134,0.027681
2476.50739,0.02782
2474.578646,0.02778
2472.649902,0.027535
2470.721158,0.027251
2468.792414,0.027205
2466.86367,0.027389
2464.934926,0.02747
2463.006182,0.027352
2461.077438,0.02727
2459.148694,0.027314
2457.219949,0.027347
2455.291205,0.027226
2453.362461,0.026994
2451.433717,0.026931
2449.504973,0.027063
2447.576229,0.027053
2445.647485,0.026854
2443.718741,0.026738
2441.789997,0.026814
2439.861253,0.026938
2437.932509,0.026956
2436.003765,0.026932
2434.075021,0.026992
2432.146277,0.027111
2430.217532,0.027205
2428.288788,0.027206
2426.360044,0.027098
2424.4313,0.02704
2422.502556,0.027168
2420.573812,0.027257
2418.645068,0.027126
2416.716324,0.027071
2414.78758,0.027215
2412.858836,0.027306
2410.930092,0.027343
2409.001348,0.027504
2407.072604,0.027674
2405.143859,0.027608
2403.215115,0.027385
2401.286371,0.027322
2399.357627,0.027463
2397.428883,0.027659
2395.500139,0.027816
2393.571395,0.027887
2391.642651,0.02797
2389.713907,0.028135
2387.785163,0.028274
2385.856419,0.028335
2383.927675,0.028378
2381.998931,0.028436
2380.070187,0.028501
2378.141442,0.028622
2376.212698,0.028846
2374.283954,0.029117
2372.35521,0.029352
2370.426466,0.029563
2368.497722,0.02982
2366.568978,0.030103
2364.640234,0.030349
2362.71149,0.03055
2360.782746,0.03067
2358.854002,0.030634
2356.925258,0.030422
2354.996514,0.030117
2353.06777,0.029823
2351.139025,0.029603
2349.210281,0.029539
2347.281537,0.029672
2345.352793,0.029924
2343.424049,0.030159
2341.495305,0.030281
2339.566561,0.030304
2337.637817,0.030279
2335.709073,0.030238
2333.780329,0.030198
2331.851585,0.030164
2329.922841,0.030172
2327.994097,0.030295
2326.065352,0.030455
2324.136608,0.030374
2322.207864,0.029913
2320.27912,0.029297
2318.350376,0.028834
2316.421632,0.028549
2314.492888,0.028273
2312.564144,0.028025
2310.6354,0.02787
2308.706656,0.027672
2306.777912,0.027382
2304.849168,0.027092
2302.920424,0.026866
2300.99168,0.026693
2299.062935,0.026523
2297.134191,0.02642
2295.205447,0.026459
2293.276703,0.026501
2291.347959,0.026319
2289.419215,0.025973
2287.490471,0.025626
2285.561727,0.025049
2283.632983,0.024177
2281.704239,0.023586
2279.775495,0.023568
2277.846751,0.023685
2275.918007,0.023459
2273.989262,0.022925
2272.060518,0.022483
2270.131774,0.022261
2268.20303,0.02203
2266.274286,0.0217
2264.345542,0.021347
2262.416798,0.021053
2260.488054,0.020941
2258.55931,0.020985
2256.630566,0.020829
2254.701822,0.020279
2252.773078,0.019596
2250.844334,0.01913
2248.91559,0.01912
2246.986845,0.019372
2245.058101,0.019396
2243.129357,0.019135
2241.200613,0.018876
2239.271869,0.018745
2237.343125,0.01865
2235.414381,0.018513
2233.485637,0.018204
2231.556893,0.017495
2229.628149,0.016651
2227.699405,0.016315
2225.770661,0.016499
2223.841917,0.016571
2221.913173,0.016289
2219.984428,0.015969
2218.055684,0.015801
2216.12694,0.015715
2214.198196,0.015468
2212.269452,0.014993
2210.340708,0.01458
2208.411964,0.014276
2206.48322,0.013995
2204.554476,0.013957
2202.625732,0.014232
2200.696988,0.01451
2198.768244,0.0145
2196.8395,0.014251
2194.910755,0.013837
2192.982011,0.013181
2191.053267,0.012525
2189.124523,0.012326
2187.195779,0.012482
2185.267035,0.012491
2183.338291,0.01236
2181.409547,0.012154
2179.480803,0.011579
2177.552059,0.010878
2175.623315,0.010416
2173.694571,0.010203
2171.765827,0.010284
2169.837083,0.010375
2167.908338,0.010161
2165.979594,0.009876
2164.05085,0.009574
2162.122106,0.008722
2160.193362,0.007592
2158.264618,0.007366
2156.335874,0.008014
2154.40713,0.008475
2152.478386,0.008755
2150.549642,0.009616
2148.620898,0.010799
2146.692154,0.0115
2144.76341,0.011851
2142.834666,0.012225
2140.905921,0.012804
2138.977177,0.01363
2137.048433,0.014235
2135.119689,0.014546
2133.190945,0.015069
2131.262201,0.015913
2129.333457,0.016778
2127.404713,0.017394
2125.475969,0.017892
2123.547225,0.018483
2121.618481,0.018843
2119.689737,0.018708
2117.760993,0.018531
2115.832248,0.018741
2113.903504,0.019002
2111.97476,0.018872
2110.046016,0.018568
2108.117272,0.018377
2106.188528,0.01818
2104.259784,0.018041
2102.33104,0.018086
2100.402296,0.018037
2098.473552,0.017751
2096.544808,0.017439
2094.616064,0.017251
2092.68732,0.017302
2090.758576,0.017578
2088.829831,0.017871
2086.901087,0.018007
2084.972343,0.017867
2083.043599,0.017541
2081.114855,0.017354
2079.186111,0.017332
2077.257367,0.017178
2075.328623,0.016745
2073.399879,0.016113
2071.471135,0.015542
2069.542391,0.015243
2067.613647,0.01512
2065.684903,0.015169
2063.756158,0.015405
2061.827414,0.015359
2059.89867,0.014786
2057.969926,0.014168
2056.041182,0.013877
2054.112438,0.013707
2052.183694,0.013336
2050.25495,0.012598
2048.326206,0.011555
2046.397462,0.010433
2044.468718,0.009423
2042.539974,0.008815
2040.61123,0.008533
2038.682486,0.008252
2036.753741,0.008247
2034.824997,0.008355
2032.896253,0.007891
2030.967509,0.007224
2029.038765,0.006984
2027.110021,0.007016
2025.181277,0.007142
2023.252533,0.007435
2021.323789,0.007827
2019.395045,0.008071
2017.466301,0.008042
2015.537557,0.007915
2013.608813,0.007981
2011.680069,0.008223
2009.751324,0.008468
2007.82258,0.008832
2005.893836,0.009285
2003.965092,0.00959
2002.036348,0.009921
2000.107604,0.010335
1998.17886,0.010531
1996.250116,0.010543
1994.321372,0.010491
1992.392628,0.010308
1990.463884,0.010113
1988.53514,0.010068
1986.606396,0.010124
1984.677651,0.010069
1982.748907,0.00974
1980.820163,0.009207
1978.891419,0.008786
1976.962675,0.008846
1975.033931,0.009222
1973.105187,0.009269
1971.176443,0.009045
1969.247699,0.009281
1967.318955,0.009911
1965.390211,0.010388
1963.461467,0.010722
1961.532723,0.011136
1959.603979,0.01179
1957.675234,0.012554
1955.74649,0.013187
1953.817746,0.013687
1951.889002,0.013957
1949.960258,0.01413
1948.031514,0.014406
1946.10277,0.014514
1944.174026,0.01437
1942.245282,0.014194
1940.316538,0.014251
1938.387794,0.014769
1936.45905,0.015471
1934.530306,0.015864
1932.601562,0.015923
1930.672817,0.016048
1928.744073,0.016555
1926.815329,0.017268
1924.886585,0.01769
1922.957841,0.017642
1921.029097,0.01762
1919.100353,0.017943
1917.171609,0.018152
1915.242865,0.018007
1913.314121,0.017846
1911.385377,0.017903
1909.456633,0.018087
1907.527889,0.01824
1905.599144,0.018405
1903.6704,0.018678
1901.741656,0.018967
1899.812912,0.01911
1897.884168,0.019124
1895.955424,0.019067
1894.02668,0.018935
1892.097936,0.018973
1890.169192,0.019312
1888.240448,0.019553
1886.311704,0.019432
1884.38296,0.019343
1882.454216,0.019624
1880.525472,0.019913
1878.596727,0.019898
1876.667983,0.019922
1874.739239,0.020187
1872.810495,0.02034
1870.881751,0.020301
1868.953007,0.020302
1867.024263,0.020254
1865.095519,0.020116
1863.166775,0.020143
1861.238031,0.020408
1859.309287,0.020662
1857.380543,0.020795
1855.451799,0.020972
1853.523055,0.021134
1851.59431,0.021106
1849.665566,0.020989
1847.736822,0.020957
1845.808078,0.021107
1843.879334,0.021428
1841.95059,0.02164
1840.021846,0.021545
1838.093102,0.021403
1836.164358,0.021459
1834.235614,0.021626
1832.30687,0.021835
1830.378126,0.022058
1828.449382,0.022181
1826.520637,0.022223
1824.591893,0.022311
1822.663149,0.022395
1820.734405,0.022374
1818.805661,0.022342
1816.876917,0.022442
1814.948173,0.022616
1813.019429,0.022747
1811.090685,0.022816
1809.161941,0.022797
1807.233197,0.022706
1805.304453,0.022633
1803.375709,0.02259
1801.446965,0.022531
1799.51822,0.022467
1797.589476,0.022456
1795.660732,0.022447
1793.731988,0.022353
1791.803244,0.022212
1789.8745,0.022037
1787.945756,0.021808
1786.017012,0.021595
1784.088268,0.021467
1782.159524,0.021407
1780.23078,0.021364
1778.302036,0.02132
1776.373292,0.021259
1774.444547,0.02114
1772.515803,0.02098
1770.587059,0.020894
1768.658315,0.020934
1766.729571,0.020984
1764.800827,0.02098
1762.872083,0.020983
1760.943339,0.021058
1759.014595,0.021311
1757.085851,0.021811
1755.157107,0.022518
1753.228363,0.023529
1751.299619,0.025053
1749.370875,0.027205
1747.44213,0.030083
1745.513386,0.033907
1743.584642,0.038829
1741.655898,0.044746
1739.727154,0.051363
1737.79841,0.05819
1735.869666,0.065208
1733.940922,0.072738
1732.012178,0.080228
1730.083434,0.087256
1728.15469,0.094172
1726.225946,0.101042
1724.297202,0.107824
1722.368458,0.114632
1720.439713,0.121844
1718.510969,0.13008
1716.582225,0.138914
1714.653481,0.146545
1712.724737,0.151606
1710.795993,0.153649
1708.867249,0.152837
1706.938505,0.149751
1705.009761,0.145111
1703.081017,0.139694
1701.152273,0.133894
1699.223529,0.128087
1697.294785,0.122728
1695.36604,0.117845
1693.437296,0.113517
1691.508552,0.109824
1689.579808,0.106768
1687.651064,0.104439
1685.72232,0.102874
1683.793576,0.101879
1681.864832,0.100902
1679.936088,0.099626
1678.007344,0.098187
1676.0786,0.096803
1674.149856,0.095604
1672.221112,0.094575
1670.292368,0.093635
1668.363623,0.092759
1666.434879,0.09194
1664.506135,0.091195
1662.577391,0.090554
1660.648647,0.090034
1658.719903,0.089665
1656.791159,0.089434
1654.862415,0.089327
1652.933671,0.089236
1651.004927,0.088893
1649.076183,0.08835
1647.147439,0.087766
1645.218695,0.08704
1643.289951,0.086148
1641.361206,0.085268
1639.432462,0.084442
1637.503718,0.083522
1635.574974,0.082431
1633.64623,0.081273
1631.717486,0.080234
1629.788742,0.079382
1627.859998,0.07859
1625.931254,0.077755
1624.00251,0.076917
1622.073766,0.076111
1620.145022,0.075415
1618.216278,0.074981
1616.287533,0.07474
1614.358789,0.074421
1612.430045,0.073975
1610.501301,0.073522
1608.572557,0.07316
1606.643813,0.072928
1604.715069,0.072768
1602.786325,0.072554
1600.857581,0.072132
1598.928837,0.071476
1597.000093,0.070742
1595.071349,0.07007
1593.142605,0.069518
1591.213861,0.069104
1589.285116,0.068845
1587.356372,0.068802
1585.427628,0.069007
1583.498884,0.069438
1581.57014,0.070036
1579.641396,0.070595
1577.712652,0.07079
1575.783908,0.070347
1573.855164,0.069357
1571.92642,0.068258
1569.997676,0.067312
1568.068932,0.066506
1566.140188,0.065852
1564.211443,0.065426
1562.282699,0.065258
1560.353955,0.065374
1558.425211,0.065677
1556.496467,0.065974
1554.567723,0.066261
1552.638979,0.066532
1550.710235,0.06675
1548.781491,0.06693
1546.852747,0.067048
1544.924003,0.067091
1542.995259,0.067074
1541.066515,0.066965
1539.137771,0.066647
1537.209026,0.066103
1535.280282,0.065512
1533.351538,0.064981
1531.422794,0.06452
1529.49405,0.064179
1527.565306,0.063967
1525.636562,0.063773
1523.707818,0.063536
1521.779074,0.063269
1519.85033,0.062918
1517.921586,0.062474
1515.992842,0.062006
1514.064098,0.061616
1512.135354,0.061624
1510.206609,0.06274
1508.277865,0.065561
1506.349121,0.068895
1504.420377,0.069715
1502.491633,0.067276
1500.562889,0.063667
1498.634145,0.060766
1496.705401,0.059085
1494.776657,0.058191
1492.847913,0.057421
1490.919169,0.056545
1488.990425,0.05586
1487.061681,0.055637
1485.132936,0.055871
1483.204192,0.056521
1481.275448,0.057573
1479.346704,0.059002
1477.41796,0.060917
1475.489216,0.063642
1473.560472,0.067169
1471.631728,0.070318
1469.702984,0.071683
1467.77424,0.071522
1465.845496,0.071095
1463.916752,0.071142
1461.988008,0.071722
1460.059264,0.072774
1458.130519,0.074241
1456.201775,0.075777
1454.273031,0.076902
1452.344287,0.077415
1450.415543,0.077306
1448.486799,0.076743
1446.558055,0.075911
1444.629311,0.07491
1442.700567,0.073913
1440.771823,0.073026
1438.843079,0.072142
1436.914335,0.071069
1434.985591,0.069696
1433.056847,0.06807
1431.128102,0.066292
1429.199358,0.064524
1427.270614,0.063025
1425.34187,0.061979
1423.413126,0.061577
1421.484382,0.062133
1419.555638,0.063966
1417.626894,0.067425
1415.69815,0.073027
1413.769406,0.080923
1411.840662,0.089717
1409.911918,0.096511
1407.983174,0.098853
1406.054429,0.096589
1404.125685,0.091614
1402.196941,0.086137
1400.268197,0.081381
1398.339453,0.077636
1396.410709,0.074816
1394.481965,0.072719
1392.553221,0.071231
1390.624477,0.070337
1388.695733,0.069965
1386.766989,0.069903
1384.838245,0.0698
1382.909501,0.069488
1380.980757,0.069179
1379.052012,0.069091
1377.123268,0.069147
1375.194524,0.069152
1373.26578,0.069003
1371.337036,0.068686
1369.408292,0.068129
1367.479548,0.067119
1365.550804,0.065526
1363.62206,0.063562
1361.693316,0.061624
1359.764572,0.06003
1357.835828,0.058909
1355.907084,0.058298
1353.97834,0.058342
1352.049595,0.059275
1350.120851,0.061488
1348.192107,0.065674
1346.263363,0.072297
1344.334619,0.080647
1342.405875,0.088508
1340.477131,0.093036
1338.548387,0.092451
1336.619643,0.087199
1334.690899,0.079452
1332.762155,0.071684
1330.833411,0.06556
1328.904667,0.061507
1326.975922,0.059162
1325.047178,0.058049
1323.118434,0.057754
1321.18969,0.057896
1319.260946,0.058241
1317.332202,0.058757
1315.403458,0.059456
1313.474714,0.0603
1311.54597,0.061279
1309.617226,0.06241
1307.688482,0.063679
1305.759738,0.06511
1303.830994,0.066852
1301.90225,0.069129
1299.973505,0.072053
1298.044761,0.075493
1296.116017,0.079214
1294.187273,0.08309
1292.258529,0.087048
1290.329785,0.090966
1288.401041,0.094796
1286.472297,0.098597
1284.543553,0.102456
1282.614809,0.106428
1280.686065,0.110573
1278.757321,0.114952
1276.828577,0.119553
1274.899832,0.124382
1272.971088,0.129575
1271.042344,0.13529
1269.1136,0.141537
1267.184856,0.148186
1265.256112,0.154951
1263.327368,0.161293
1261.398624,0.166581
1259.46988,0.17049
1257.541136,0.17324
1255.612392,0.175482
1253.683648,0.177963
1251.754904,0.181168
1249.82616,0.185071
1247.897415,0.189265
1245.968671,0.193363
1244.039927,0.197089
1242.111183,0.199993
1240.182439,0.201443
1238.253695,0.20096
1236.324951,0.198367
1234.396207,0.193818
1232.467463,0.187772
1230.538719,0.180924
1228.609975,0.174104
1226.681231,0.167885
1224.752487,0.162389
1222.823743,0.15743
1220.894998,0.152611
1218.966254,0.147651
1217.03751,0.142634
1215.108766,0.137776
1213.180022,0.133218
1211.251278,0.129055
1209.322534,0.125318
1207.39379,0.1219
1205.465046,0.118643
1203.536302,0.115514
1201.607558,0.112544
1199.678814,0.109699
1197.75007,0.106941
1195.821325,0.104208
1193.892581,0.101423
1191.963837,0.098623
1190.035093,0.095918
1188.106349,0.093461
1186.177605,0.091427
1184.248861,0.089945
1182.320117,0.089093
1180.391373,0.088842
1178.462629,0.088985
1176.533885,0.089197
1174.605141,0.08914
1172.676397,0.088535
1170.747653,0.087276
1168.818908,0.085542
1166.890164,0.083646
1164.96142,0.08183
1163.032676,0.080294
1161.103932,0.079132
1159.175188,0.078316
1157.246444,0.077799
1155.3177,0.0775
1153.388956,0.077422
1151.460212,0.077677
1149.531468,0.078332
1147.602724,0.079443
1145.67398,0.081159
1143.745236,0.083677
1141.816491,0.087153
1139.887747,0.091657
1137.959003,0.0972
1136.030259,0.103789
1134.101515,0.111332
1132.172771,0.119431
1130.244027,0.127499
1128.315283,0.135095
1126.386539,0.141905
1124.457795,0.147695
1122.529051,0.152418
1120.600307,0.156031
1118.671563,0.158364
1116.742818,0.159539
1114.814074,0.160217
1112.88533,0.161222
1110.956586,0.163133
1109.027842,0.166308
1107.099098,0.170821
1105.170354,0.17628
1103.24161,0.182138
1101.312866,0.187986
1099.384122,0.193431
1097.455378,0.198039
1095.526634,0.201431
1093.59789,0.203436
1091.669146,0.204211
1089.740401,0.204116
1087.811657,0.203416
1085.882913,0.202157
1083.954169,0.200264
1082.025425,0.197533
1080.096681,0.19373
1078.167937,0.188922
1076.239193,0.183502
1074.310449,0.177914
1072.381705,0.172459
1070.452961,0.16728
1068.524217,0.162443
1066.595473,0.157966
1064.666728,0.153847
1062.737984,0.150105
1060.80924,0.146737
1058.880496,0.143715
1056.951752,0.141106
1055.023008,0.139116
1053.094264,0.137909
1051.16552,0.137459
1049.236776,0.137596
1047.308032,0.138082
1045.379288,0.138619
1043.450544,0.138936
1041.5218,0.138953
1039.593056,0.138729
1037.664311,0.138231
1035.735567,0.13734
1033.806823,0.13603
1031.878079,0.134383
1029.949335,0.13285
1028.020591,0.133054
1026.091847,0.137203
1024.163103,0.145312
1022.234359,0.154915
1020.305615,0.164274
1018.376871,0.172351
1016.448127,0.176374
1014.519383,0.174044
1012.590639,0.166993
1010.661894,0.158941
1008.73315,0.152113
1006.804406,0.146732
1004.875662,0.142383
1002.946918,0.138773
1001.018174,0.135712
999.08943,0.133033
997.160686,0.130601
995.231942,0.12835
993.303198,0.126308
991.374454,0.124466
989.44571,0.122696
987.516966,0.120942
985.588221,0.119312
983.659477,0.117988
981.730733,0.117245
979.801989,0.11746
977.873245,0.118947
975.944501,0.121783
974.015757,0.1257
972.087013,0.129968
970.158269,0.133569
968.229525,0.13567
966.300781,0.135889
964.372037,0.134311
962.443293,0.131276
960.514549,0.127262
958.585804,0.123013
956.65706,0.119134
954.728316,0.115722
952.799572,0.112789
950.870828,0.110469
948.942084,0.108736
947.01334,0.1074
945.084596,0.106274
943.155852,0.105322
941.227108,0.104609
939.298364,0.104017
937.36962,0.103375
935.440876,0.10267
933.512132,0.101913
931.583387,0.101106
929.654643,0.100216
927.725899,0.099276
925.797155,0.098506
923.868411,0.098061
921.939667,0.097875
920.010923,0.097922
918.082179,0.098312
916.153435,0.099109
914.224691,0.100266
912.295947,0.101495
910.367203,0.102253
908.438459,0.102288
906.509714,0.101756
904.58097,0.100914
902.652226,0.100088
900.723482,0.099388
898.794738,0.098594
896.865994,0.097631
894.93725,0.096607
893.008506,0.095499
891.079762,0.094257
889.151018,0.093132
887.222274,0.092579
885.29353,0.092912
883.364786,0.094284
881.436042,0.096859
879.507297,0.10094500000000001
877.578553,0.107379
875.649809,0.117903
873.721065,0.132133
871.792321,0.143102
869.863577,0.143308
867.934833,0.135238
866.006089,0.126467
864.077345,0.120299
862.148601,0.116557
860.219857,0.114733
858.291113,0.11429
856.362369,0.114557
854.433625,0.115241
852.50488,0.11656
850.576136,0.118739
848.647392,0.121261
846.718648,0.122838
844.789904,0.122663
842.86116,0.121101
840.932416,0.11892
839.003672,0.116627
837.074928,0.114407
835.146184,0.112264
833.21744,0.110311
831.288696,0.108778
829.359952,0.107717
827.431207,0.107
825.502463,0.106474
823.573719,0.10598
821.644975,0.105481
819.716231,0.105078
817.787487,0.104775
815.858743,0.104476
813.929999,0.104193
812.001255,0.104079
810.072511,0.104188
808.143767,0.104324
806.215023,0.104312
804.286279,0.104191
802.357535,0.104052
800.42879,0.104018
798.500046,0.104422
796.571302,0.105656
794.642558,0.107416
792.713814,0.108461
790.78507,0.107831
788.856326,0.105886
786.927582,0.103519
784.998838,0.101118
783.070094,0.098801
781.14135,0.096674
779.212606,0.09471
777.283862,0.092883
775.355117,0.091258
773.426373,0.089826
771.497629,0.088433
769.568885,0.087012
767.640141,0.085666
765.711397,0.08447
763.782653,0.083528
761.853909,0.082907
759.925165,0.082402
757.996421,0.081806
756.067677,0.081012
754.138933,0.079821
752.210189,0.078229
750.281445,0.07661
748.3527,0.075262
746.423956,0.074198
744.495212,0.073648
742.566468,0.074513
740.637724,0.078215
738.70898,0.086002
736.780236,0.098419
734.851492,0.115316
732.922748,0.135708
730.994004,0.158198
729.06526,0.182259
727.136516,0.207836
725.207772,0.232506
723.279028,0.25078
721.350283,0.258412
719.421539,0.255945
717.492795,0.247172
715.564051,0.236217
713.635307,0.225788
711.706563,0.216794
709.777819,0.209212
707.849075,0.203134
705.920331,0.199023
703.991587,0.197082
702.062843,0.196571
700.134099,0.19574
698.205355,0.192696
696.27661,0.186891
694.347866,0.179853
692.419122,0.173739
690.490378,0.16925
688.561634,0.1658
686.63289,0.162946
684.704146,0.160721
682.775402,0.159104
680.846658,0.157803
678.917914,0.156515
676.98917,0.155003
675.060426,0.153207
673.131682,0.151377
671.202938,0.149764
669.274193,0.14832
667.345449,0.146828
665.416705,0.145285
663.487961,0.143928
661.559217,0.142831
659.630473,0.141795
657.701729,0.140612
655.772985,0.139378
653.844241,0.138348
651.915497,0.137436
649.986753,0.13631
648.058009,0.13512
646.129265,0.134311
644.200521,0.133715
642.271776,0.132935
640.343032,0.132082
638.414288,0.13123
636.485544,0.130501
634.5568,0.130592
632.628056,0.131472
630.699312,0.131758
628.770568,0.130785
626.841824,0.129346
624.91308,0.128145
622.984336,0.127378
621.055592,0.126985
619.126848,0.126547
617.198103,0.125783
615.269359,0.125036
613.340615,0.124735
611.411871,0.124693
609.483127,0.124534
607.554383,0.124223
605.625639,0.123855
603.696895,0.123564
601.768151,0.123389
599.839407,0.123169
597.910663,0.122841
595.981919,0.122487
594.053175,0.122091
592.124431,0.121544
590.195686,0.120999
588.266942,0.120818
586.338198,0.120882
584.409454,0.120674
582.48071,0.120125
580.551966,0.119694
578.623222,0.119619
576.694478,0.119844
574.765734,0.120342
572.83699,0.12083
570.908246,0.12106
568.979502,0.121236
567.050758,0.121524
565.122013,0.121877
563.193269,0.122286
561.264525,0.122598
559.335781,0.122668
557.407037,0.122965
555.478293,0.12388
553.549549,0.124893
551.620805,0.125432
549.692061,0.125701
547.763317,0.12647
545.834573,0.128128
543.905829,0.129956
541.977085,0.131117
540.048341,0.131911
538.119596,0.132875
536.190852,0.133746
534.262108,0.134322
532.333364,0.134528
530.40462,0.134098
528.475876,0.13341
526.547132,0.132929
524.618388,0.13252
522.689644,0.131885
520.7609,0.13078
518.832156,0.129407
516.903412,0.128279
514.974668,0.127679
513.045924,0.12769
511.117179,0.128656
509.188435,0.131499
507.259691,0.136156
505.330947,0.140195
503.402203,0.141183
501.473459,0.139516
499.544715,0.137086
497.615971,0.134835
495.687227,0.133037
493.758483,0.131586
491.829739,0.129906
489.900995,0.128242
487.972251,0.127337
486.043506,0.12695
484.114762,0.126582
482.186018,0.126613
480.257274,0.127535
478.32853,0.129144
476.399786,0.131003
474.471042,0.132671
472.542298,0.134015
470.613554,0.135381
468.68481,0.136695
466.756066,0.137444
464.827322,0.137545
462.898578,0.137126
460.969834,0.136093
459.041089,0.134554
457.112345,0.132808
455.183601,0.131009
453.254857,0.129446
451.326113,0.128235
449.397369,0.126974
447.468625,0.12587
445.539881,0.125891
443.611137,0.127314
441.682393,0.129888
439.753649,0.133717
437.824905,0.138434
435.896161,0.142941
433.967417,0.146449
432.038672,0.148358
430.109928,0.148011
428.181184,0.145883
426.25244,0.143474
424.323696,0.141191
422.394952,0.138678
420.466208,0.136572
418.537464,0.135092
416.60872,0.133301
414.679976,0.130683
412.751232,0.12747
410.822488,0.125005
408.893744,0.124345
406.964999,0.124134
405.036255,0.123002
403.107511,0.122116
401.178767,0.122825
399.250023,0.124449
