3996.35772,0.002047
3994.428976,0.002243
3992.500232,0.002391
3990.571488,0.002355
3988.642744,0.002191
3986.714,0.001972
3984.785256,0.001853
3982.856511,0.001923
3980.927767,0.002095
3978.999023,0.002274
3977.070279,0.002379
3975.141535,0.002361
3973.212791,0.00229
3971.284047,0.002274
3969.355303,0.002313
3967.426559,0.002399
3965.497815,0.002518
3963.569071,0.00254
3961.640327,0.002494
3959.711583,0.002544
3957.782839,0.002537
3955.854094,0.002339
3953.92535,0.002201
3951.996606,0.002263
3950.067862,0.002371
3948.139118,0.00239
3946.210374,0.002305
3944.28163,0.002252
3942.352886,0.002275
3940.424142,0.002242
3938.495398,0.002188
3936.566654,0.002198
3934.63791,0.002182
3932.709166,0.002073
3930.780422,0.002022
3928.851677,0.002191
3926.922933,0.002378
3924.994189,0.002252
3923.065445,0.001924
3921.136701,0.001835
3919.207957,0.002081
3917.279213,0.002381
3915.350469,0.002512
3913.421725,0.002301
3911.492981,0.001851
3909.564237,0.001596
3907.635493,0.00165
3905.706749,0.001772
3903.778004,0.001847
3901.84926,0.001951
3899.920516,0.002131
3897.991772,0.002257
3896.063028,0.002252
3894.134284,0.002208
3892.20554,0.002113
3890.276796,0.001957
3888.348052,0.001914
3886.419308,0.001979
3884.490564,0.001941
3882.56182,0.001796
3880.633076,0.00173
3878.704332,0.001784
3876.775587,0.001858
3874.846843,0.001997
3872.918099,0.002303
3870.989355,0.00261
3869.060611,0.002658
3867.131867,0.002465
3865.203123,0.002236
3863.274379,0.002102
3861.345635,0.002063
3859.416891,0.002121
3857.488147,0.002284
3855.559403,0.00239
3853.630659,0.002315
3851.701915,0.002216
3849.77317,0.002172
3847.844426,0.002115
3845.915682,0.0021
3843.986938,0.002152
3842.058194,0.002231
3840.12945,0.002327
3838.200706,0.002284
3836.271962,0.002052
3834.343218,0.001861
3832.414474,0.001755
3830.48573,0.001692
3828.556986,0.001785
3826.628242,0.001993
3824.699497,0.002125
3822.770753,0.002146
3820.842009,0.002096
3818.913265,0.002047
3816.984521,0.002083
3815.055777,0.002133
3813.127033,0.002138
3811.198289,0.002165
3809.269545,0.002214
3807.340801,0.002216
3805.412057,0.002209
3803.483313,0.002213
3801.554569,0.002105
3799.625825,0.001912
3797.69708,0.001789
3795.768336,0.001754
3793.839592,0.001752
3791.910848,0.00173
3789.982104,0.001657
3788.05336,0.001597
3786.124616,0.001695
3784.195872,0.001867
3782.267128,0.001868
3780.338384,0.001811
3778.40964,0.001931
3776.480896,0.002145
3774.552152,0.002201
3772.623408,0.002047
3770.694663,0.001894
3768.765919,0.00185
3766.837175,0.001861
3764.908431,0.001882
3762.979687,0.001831
3761.050943,0.001703
3759.122199,0.001641
3757.193455,0.00174
3755.264711,0.001932
3753.335967,0.002065
3751.407223,0.002054
3749.478479,0.002048
3747.549735,0.002185
3745.62099,0.002321
3743.692246,0.002289
3741.763502,0.002167
3739.834758,0.002108
3737.906014,0.002093
3735.97727,0.002033
3734.048526,0.00191
3732.119782,0.001655
3730.191038,0.001337
3728.262294,0.001331
3726.33355,0.001703
3724.404806,0.002036
3722.476062,0.002061
3720.547318,0.001852
3718.618573,0.001596
3716.689829,0.001481
3714.761085,0.001544
3712.832341,0.001725
3710.903597,0.001952
3708.974853,0.00203
3707.046109,0.001886
3705.117365,0.001691
3703.188621,0.001514
3701.259877,0.001382
3699.331133,0.001425
3697.402389,0.001562
3695.473645,0.001596
3693.5449,0.001615
3691.616156,0.001736
3689.687412,0.001775
3687.758668,0.001621
3685.829924,0.001474
3683.90118,0.001536
3681.972436,0.001763
3680.043692,0.001879
3678.114948,0.001746
3676.186204,0.001477
3674.25746,0.001238
3672.328716,0.001244
3670.399972,0.001483
3668.471228,0.001655
3666.542483,0.001666
3664.613739,0.001645
3662.684995,0.001563
3660.756251,0.001345
3658.827507,0.001063
3656.898763,0.000858
3654.970019,0.00082
3653.041275,0.000943
3651.112531,0.001196
3649.183787,0.001382
3647.255043,0.001284
3645.326299,0.001129
3643.397555,0.001146
3641.468811,0.001177
3639.540066,0.001052
3637.611322,0.000858
3635.682578,0.000848
3633.753834,0.001138
3631.82509,0.001513
3629.896346,0.001645
3627.967602,0.001432
3626.038858,0.001151
3624.110114,0.001085
3622.18137,0.001158
3620.252626,0.001126
3618.323882,0.001026
3616.395138,0.001045
3614.466393,0.00111
3612.537649,0.001172
3610.608905,0.001268
3608.680161,0.001269
3606.751417,0.001106
3604.822673,0.000861
3602.893929,0.00068
3600.965185,0.000705
3599.036441,0.000852
3597.107697,0.000916
3595.178953,0.000945
3593.250209,0.001077
3591.321465,0.001153
3589.392721,0.001062
3587.463976,0.000973
3585.535232,0.000839
3583.606488,0.00057
3581.677744,0.000496
3579.749,0.000696
3577.820256,0.000753
3575.891512,0.000659
3573.962768,0.000747
3572.034024,0.000898
3570.10528,0.000847
3568.176536,0.000701
3566.247792,0.000596
3564.319048,0.000572
3562.390304,0.000693
3560.461559,0.000757
3558.532815,0.000663
3556.604071,0.000691
3554.675327,0.000827
3552.746583,0.000816
3550.817839,0.000701
3548.889095,0.000562
3546.960351,0.000349
3545.031607,0.00023
3543.102863,0.000341
3541.174119,0.000441
3539.245375,0.000365
3537.316631,0.000227
3535.387886,0.000183
3533.459142,0.000246
3531.530398,0.000247
3529.601654,0.000173
3527.67291,0.00022
3525.744166,0.000405
3523.815422,0.000527
3521.886678,0.000457
3519.957934,0.000263
3518.02919,7.8e-05
3516.100446,-8.9e-05
3514.171702,-0.000254
3512.242958,-0.000292
3510.314214,-0.000152
3508.385469,2.2e-05
3506.456725,0.000189
3504.527981,0.000399
3502.599237,0.000455
3500.670493,0.000229
3498.741749,-1.1e-05
3496.813005,-7.6e-05
3494.884261,-7.6e-05
3492.955517,-8.2e-05
3491.026773,-6.9e-05
3489.098029,-4e-06
3487.169285,3.5e-05
3485.240541,-8.6e-05
3483.311796,-0.00024
3481.383052,-0.000235
3479.454308,-0.000179
3477.525564,-0.000156
3475.59682,-8.7e-05
3473.668076,2e-05
3471.739332,9.2e-05
3469.810588,0.000119
3467.881844,0.000165
3465.9531,0.000247
3464.024356,0.000232
3462.095612,8.7e-05
3460.166868,-8e-06
3458.238124,-3.7e-05
3456.309379,-6.3e-05
3454.380635,-8e-06
3452.451891,4.4e-05
3450.523147,-3.9e-05
3448.594403,-0.000151
3446.665659,-0.000175
3444.736915,-7.6e-05
3442.808171,1.5e-05
3440.879427,-9.1e-05
3438.950683,-0.000249
3437.021939,-0.000238
3435.093195,-0.000198
3433.164451,-0.000258
3431.235707,-0.000315
3429.306962,-0.000341
3427.378218,-0.000308
3425.449474,-0.000189
3423.52073,-0.000146
3421.591986,-0.000193
3419.663242,-0.000114
3417.734498,7.2e-05
3415.805754,0.000107
3413.87701,-1.7e-05
3411.948266,-9.6e-05
3410.019522,-0.000132
3408.090778,-0.000236
3406.162034,-0.000387
3404.233289,-0.000481
3402.304545,-0.000472
3400.375801,-0.000401
3398.447057,-0.000357
3396.518313,-0.000329
3394.589569,-0.000208
3392.660825,-4.2e-05
3390.732081,0.000101
3388.803337,0.000241
3386.874593,0.000263
3384.945849,8.8e-05
3383.017105,-0.000143
3381.088361,-0.000233
3379.159617,-0.000233
3377.230872,-0.000341
3375.302128,-0.000446
3373.373384,-0.000382
3371.44464,-0.000231
3369.515896,-5.2e-05
3367.587152,4.1e-05
3365.658408,-4.1e-05
3363.729664,-8.8e-05
3361.80092,-1.9e-05
3359.872176,-2.8e-05
3357.943432,-3.8e-05
3356.014688,0.000138
3354.085944,0.000256
3352.1572,7.7e-05
3350.228455,-0.000141
3348.299711,-0.000104
3346.370967,8.5e-05
3344.442223,0.000194
3342.513479,0.000228
3340.584735,0.000334
3338.655991,0.000398
3336.727247,0.000226
3334.798503,5.6e-05
3332.869759,0.000155
3330.941015,0.000356
3329.012271,0.000495
3327.083527,0.000582
3325.154782,0.000583
3323.226038,0.000511
3321.297294,0.00044
3319.36855,0.000422
3317.439806,0.000476
3315.511062,0.000536
3313.582318,0.00054
3311.653574,0.000511
3309.72483,0.000516
3307.796086,0.000567
3305.867342,0.000583
3303.938598,0.000606
3302.009854,0.000704
3300.08111,0.000712
3298.152365,0.000591
3296.223621,0.000492
3294.294877,0.000412
3292.366133,0.000379
3290.437389,0.000478
3288.508645,0.000587
3286.579901,0.000579
3284.651157,0.000555
3282.722413,0.000644
3280.793669,0.000741
3278.864925,0.000692
3276.936181,0.000643
3275.007437,0.000723
3273.078692,0.00079
3271.149948,0.00082
3269.221204,0.000888
3267.29246,0.000883
3265.363716,0.000762
3263.434972,0.000707
3261.506228,0.00075
3259.577484,0.000755
3257.64874,0.000708
3255.719996,0.00057
3253.791252,0.000408
3251.862508,0.000495
3249.933764,0.000768
3248.00502,0.00089
3246.076275,0.000841
3244.147531,0.000811
3242.218787,0.000854
3240.290043,0.000956
3238.361299,0.001066
3236.432555,0.001014
3234.503811,0.000835
3232.575067,0.000723
3230.646323,0.00065
3228.717579,0.000618
3226.788835,0.000626
3224.860091,0.00055
3222.931347,0.000554
3221.002603,0.000734
3219.073858,0.000784
3217.145114,0.000667
3215.21637,0.000608
3213.287626,0.000576
3211.358882,0.000571
3209.430138,0.000703
3207.501394,0.00078
3205.57265,0.000659
3203.643906,0.000596
3201.715162,0.0007
3199.786418,0.000752
3197.857674,0.000709
3195.92893,0.000728
3194.000185,0.000853
3192.071441,0.000972
3190.142697,0.000987
3188.213953,0.000975
3186.285209,0.001021
3184.356465,0.001026
3182.427721,0.000947
3180.498977,0.00085
3178.570233,0.000754
3176.641489,0.000668
3174.712745,0.000625
3172.784001,0.000658
3170.855257,0.000727
3168.926513,0.000789
3166.997768,0.000841
3165.069024,0.000849
3163.14028,0.000846
3161.211536,0.000941
3159.282792,0.001131
3157.354048,0.001254
3155.425304,0.001183
3153.49656,0.00101
3151.567816,0.000912
3149.639072,0.000926
3147.710328,0.00095
3145.781584,0.000945
3143.85284,0.000894
3141.924096,0.000764
3139.995351,0.000684
3138.066607,0.000761
3136.137863,0.000915
3134.209119,0.001006
3132.280375,0.000959
3130.351631,0.000903
3128.422887,0.000972
3126.494143,0.001123
3124.565399,0.001201
3122.636655,0.001087
3120.707911,0.000913
3118.779167,0.000853
3116.850423,0.000878
3114.921678,0.000916
3112.992934,0.000954
3111.06419,0.000988
3109.135446,0.000999
3107.206702,0.001003
3105.277958,0.001052
3103.349214,0.001098
3101.42047,0.001045
3099.491726,0.000941
3097.562982,0.000865
3095.634238,0.000825
3093.705494,0.00083
3091.77675,0.00088
3089.848006,0.000902
3087.919261,0.000865
3085.990517,0.000902
3084.061773,0.001045
3082.133029,0.001123
3080.204285,0.001087
3078.275541,0.00104
3076.346797,0.001053
3074.418053,0.00111
3072.489309,0.001166
3070.560565,0.001201
3068.631821,0.001217
3066.703077,0.001238
3064.774333,0.001269
3062.845589,0.001277
3060.916844,0.001254
3058.9881,0.001228
3057.059356,0.001181
3055.130612,0.001146
3053.201868,0.001162
3051.273124,0.001126
3049.34438,0.001032
3047.415636,0.001036
3045.486892,0.001168
3043.558148,0.001328
3041.629404,0.001412
3039.70066,0.0014
3037.771916,0.001389
3035.843171,0.001419
3033.914427,0.001371
3031.985683,0.001217
3030.056939,0.001112
3028.128195,0.001107
3026.199451,0.00116
3024.270707,0.001251
3022.341963,0.001288
3020.413219,0.001272
3018.484475,0.001307
3016.555731,0.00133
3014.626987,0.001258
3012.698243,0.001159
3010.769499,0.001105
3008.840754,0.001098
3006.91201,0.001058
3004.983266,0.000965
3003.054522,0.000974
3001.125778,0.001189
2999.197034,0.001459
2997.26829,0.001577
2995.339546,0.001515
2993.410802,0.001357
2991.482058,0.001193
2989.553314,0.001079
2987.62457,0.001055
2985.695826,0.001177
2983.767081,0.001383
2981.838337,0.001549
2979.909593,0.001657
2977.980849,0.001711
2976.052105,0.001697
2974.123361,0.0017
2972.194617,0.001848
2970.265873,0.002091
2968.337129,0.002277
2966.408385,0.002432
2964.479641,0.002649
2962.550897,0.002904
2960.622153,0.003156
2958.693409,0.003401
2956.764664,0.003674
2954.83592,0.003965
2952.907176,0.004183
2950.978432,0.004316
2949.049688,0.004362
2947.120944,0.004346
2945.1922,0.004381
2943.263456,0.004462
2941.334712,0.004527
2939.405968,0.004544
2937.477224,0.004493
2935.54848,0.004448
2933.619736,0.004406
2931.690992,0.004277
2929.762247,0.004096
2927.833503,0.003985
2925.904759,0.003965
2923.976015,0.003975
2922.047271,0.003991
2920.118527,0.004007
2918.189783,0.004016
2916.261039,0.004007
2914.332295,0.003928
2912.403551,0.003761
2910.474807,0.003588
2908.546063,0.003508
2906.617319,0.003535
2904.688574,0.003584
2902.75983,0.003566
2900.831086,0.003469
2898.902342,0.003358
2896.973598,0.003293
2895.044854,0.003239
2893.11611,0.003125
2891.187366,0.002963
2889.258622,0.002863
2887.329878,0.002897
2885.401134,0.002944
2883.47239,0.002897
2881.543646,0.002855
2879.614902,0.00285
2877.686157,0.00282
2875.757413,0.002838
2873.828669,0.00294
2871.899925,0.003026
2869.971181,0.003108
2868.042437,0.003197
2866.113693,0.003171
2864.184949,0.003032
2862.256205,0.002894
2860.327461,0.002795
2858.398717,0.002688
2856.469973,0.00252
2854.541229,0.002334
2852.612485,0.002265
2850.68374,0.002375
2848.754996,0.002521
2846.826252,0.002523
2844.897508,0.002425
2842.968764,0.002318
2841.04002,0.00219
2839.111276,0.00202
2837.182532,0.001804
2835.253788,0.001617
2833.325044,0.001565
2831.3963,0.001553
2829.467556,0.001471
2827.538812,0.001471
2825.610067,0.001596
2823.681323,0.001646
2821.752579,0.001592
2819.823835,0.001564
2817.895091,0.001523
2815.966347,0.001402
2814.037603,0.00131
2812.108859,0.001305
2810.180115,0.001328
2808.251371,0.001328
2806.322627,0.001275
2804.393883,0.00124
2802.465139,0.001305
2800.536395,0.001391
2798.60765,0.001415
2796.678906,0.001395
2794.750162,0.001334
2792.821418,0.001243
2790.892674,0.001238
2788.96393,0.001325
2787.035186,0.001346
2785.106442,0.001269
2783.177698,0.001231
2781.248954,0.001287
2779.32021,0.001351
2777.391466,0.001331
2775.462722,0.001231
2773.533977,0.001189
2771.605233,0.001278
2769.676489,0.00137
2767.747745,0.001358
2765.819001,0.001289
2763.890257,0.001226
2761.961513,0.001198
2760.032769,0.00123
2758.104025,0.00129
2756.175281,0.001321
2754.246537,0.001323
2752.317793,0.001292
2750.389049,0.001241
2748.460305,0.001219
2746.53156,0.001231
2744.602816,0.001251
2742.674072,0.001245
2740.745328,0.00121
2738.816584,0.001227
2736.88784,0.001353
2734.959096,0.001479
2733.030352,0.001478
2731.101608,0.001374
2729.172864,0.001232
2727.24412,0.001122
2725.315376,0.001122
2723.386632,0.00121
2721.457888,0.001285
2719.529143,0.001293
2717.600399,0.001281
2715.671655,0.001299
2713.742911,0.001285
2711.814167,0.001183
2709.885423,0.001082
2707.956679,0.001104
2706.027935,0.001189
2704.099191,0.001171
2702.170447,0.001039
2700.241703,0.000939
2698.312959,0.000947
2696.384215,0.001009
2694.45547,0.001076
2692.526726,0.001122
2690.597982,0.001132
2688.669238,0.001116
2686.740494,0.001101
2684.81175,0.001113
2682.883006,0.001148
2680.954262,0.001181
2679.025518,0.001188
2677.096774,0.001157
2675.16803,0.001131
2673.239286,0.001185
2671.310542,0.001287
2669.381798,0.001328
2667.453053,0.001293
2665.524309,0.001201
2663.595565,0.001069
2661.666821,0.001005
2659.738077,0.001033
2657.809333,0.001035
2655.880589,0.00101
2653.951845,0.001019
2652.023101,0.001075
2650.094357,0.001179
2648.165613,0.001241
2646.236869,0.00119
2644.308125,0.00111
2642.379381,0.001104
2640.450636,0.001158
2638.521892,0.001165
2636.593148,0.001115
2634.664404,0.001083
2632.73566,0.001048
2630.806916,0.000972
2628.878172,0.000896
2626.949428,0.000877
2625.020684,0.000908
2623.09194,0.000934
2621.163196,0.000951
2619.234452,0.000981
2617.305708,0.00104
2615.376963,0.001112
2613.448219,0.001085
2611.519475,0.000936
2609.590731,0.000806
2607.661987,0.000802
2605.733243,0.000853
2603.804499,0.000857
2601.875755,0.000885
2599.947011,0.000988
2598.018267,0.001032
2596.089523,0.000933
2594.160779,0.000783
2592.232035,0.000709
2590.303291,0.000739
2588.374546,0.000764
2586.445802,0.000687
2584.517058,0.000599
2582.588314,0.000638
2580.65957,0.000789
2578.730826,0.000922
2576.802082,0.000936
2574.873338,0.000871
2572.944594,0.000859
2571.01585,0.000883
2569.087106,0.000821
2567.158362,0.00071
2565.229618,0.000714
2563.300874,0.000852
2561.372129,0.000931
2559.443385,0.000893
2557.514641,0.000911
2555.585897,0.000982
2553.657153,0.000941
2551.728409,0.000738
2549.799665,0.000469
2547.870921,0.000336
2545.942177,0.000496
2544.013433,0.000776
2542.084689,0.000842
2540.155945,0.000741
2538.227201,0.000737
2536.298456,0.000732
2534.369712,0.000631
2532.440968,0.000683
2530.512224,0.000847
2528.58348,0.000831
2526.654736,0.000717
2524.725992,0.000726
2522.797248,0.000875
2520.868504,0.000972
2518.93976,0.000908
2517.011016,0.000873
2515.082272,0.000875
2513.153528,0.000774
2511.224784,0.000726
2509.296039,0.000773
2507.367295,0.000697
2505.438551,0.000531
2503.509807,0.000505
2501.581063,0.000573
2499.652319,0.000582
2497.723575,0.000586
2495.794831,0.000605
2493.866087,0.000537
2491.937343,0.000479
2490.008599,0.000597
2488.079855,0.000792
2486.151111,0.000909
2484.222366,0.000912
2482.293622,0.000823
2480.364878,0.000719
2478.436134,0.000677
2476.50739,0.000692
2474.578646,0.000666
2472.649902,0.000606
2470.721158,0.000643
2468.792414,0.000801
2466.86367,0.000914
2464.934926,0.000772
2463.006182,0.000472
2461.077438,0.000298
2459.148694,0.000364
2457.219949,0.00058
2455.291205,0.000735
2453.362461,0.000771
2451.433717,0.000822
2449.504973,0.000865
2447.576229,0.000777
2445.647485,0.000569
2443.718741,0.000394
2441.789997,0.000396
2439.861253,0.000519
2437.932509,0.000553
2436.003765,0.000462
2434.075021,0.000484
2432.146277,0.000695
2430.217532,0.000835
2428.288788,0.00081
2426.360044,0.000796
2424.4313,0.000842
2422.502556,0.00089
2420.573812,0.000799
2418.645068,0.00047
2416.716324,0.000173
2414.78758,0.000167
2412.858836,0.000325
2410.930092,0.000487
2409.001348,0.000632
2407.072604,0.000706
2405.143859,0.000641
2403.215115,0.0005
2401.286371,0.000422
2399.357627,0.000403
2397.428883,0.000379
2395.500139,0.000413
2393.571395,0.000548
2391.642651,0.000682
2389.713907,0.000695
2387.785163,0.000653
2385.856419,0.000649
2383.927675,0.000635
2381.998931,0.000654
2380.070187,0.000781
2378.141442,0.000901
2376.212698,0.000915
2374.283954,0.000915
2372.35521,0.000972
2370.426466,0.001024
2368.497722,0.001046
2366.568978,0.001087
2364.640234,0.001203
2362.71149,0.001364
2360.782746,0.001417
2358.854002,0.001322
2356.925258,0.001176
2354.996514,0.001075
2353.06777,0.001022
2351.139025,0.000954
2349.210281,0.000924
2347.281537,0.000978
2345.352793,0.001029
2343.424049,0.001043
2341.495305,0.001052
2339.566561,0.001092
2337.637817,0.001188
2335.709073,0.001277
2333.780329,0.001259
2331.851585,0.00116
2329.922841,0.001079
2327.994097,0.001048
2326.065352,0.001095
2324.136608,0.00119
2322.207864,0.001174
2320.27912,0.001041
2318.350376,0.001003
2316.421632,0.001033
2314.492888,0.000929
2312.564144,0.000782
2310.6354,0.000748
2308.706656,0.000787
2306.777912,0.000893
2304.849168,0.000994
2302.920424,0.000935
2300.99168,0.000756
2299.062935,0.000619
2297.134191,0.000619
2295.205447,0.000761
2293.276703,0.00092
2291.347959,0.000958
2289.419215,0.000895
2287.490471,0.000744
2285.561727,0.000496
2283.632983,0.000271
2281.704239,0.000247
2279.775495,0.000425
2277.846751,0.000571
2275.918007,0.000532
2273.989262,0.000495
2272.060518,0.000682
2270.131774,0.0009
2268.20303,0.000933
2266.274286,0.000883
2264.345542,0.000721
2262.416798,0.000445
2260.488054,0.00039
2258.55931,0.000709
2256.630566,0.000968
2254.701822,0.000689
2252.773078,0.000195
2250.844334,0.000186
2248.91559,0.000607
2246.986845,0.000732
2245.058101,0.000327
2243.129357,-2.7e-05
2241.200613,7.8e-05
2239.271869,0.000429
2237.343125,0.000791
2235.414381,0.000991
2233.485637,0.000738
2231.556893,0.000219
2229.628149,4.8e-05
2227.699405,0.000367
2225.770661,0.000798
2223.841917,0.001013
2221.913173,0.000908
2219.984428,0.000646
2218.055684,0.000602
2216.12694,0.000725
2214.198196,0.000573
2212.269452,0.000331
2210.340708,0.00046
2208.411964,0.000679
2206.48322,0.000544
2204.554476,0.000266
2202.625732,0.000149
2200.696988,0.000167
2198.768244,0.000242
2196.8395,0.000239
2194.910755,0.000239
2192.982011,0.00041
2191.053267,0.000552
2189.124523,0.000644
2187.195779,0.000718
2185.267035,0.000569
2183.338291,0.000527
2181.409547,0.000872
2179.480803,0.001122
2177.552059,0.001081
2175.623315,0.000952
2173.694571,0.000708
2171.765827,0.00035
2169.837083,0.000176
2167.908338,0.000369
2165.979594,0.000525
2164.05085,0.000314
2162.122106,-1.4e-05
2160.193362,-0.000312
2158.264618,-0.00041
2156.335874,-6.5e-05
2154.40713,0.000327
2152.478386,0.000337
2150.549642,0.000208
2148.620898,0.000119
2146.692154,-4.5e-05
2144.76341,-0.000142
2142.834666,-4.1e-05
2140.905921,0.000211
2138.977177,0.000416
2137.048433,0.000414
2135.119689,0.000482
2133.190945,0.000709
2131.262201,0.000822
2129.333457,0.000755
2127.404713,0.000717
2125.475969,0.000965
2123.547225,0.001249
2121.618481,0.00113
2119.689737,0.000824
2117.760993,0.000698
2115.832248,0.000656
2113.903504,0.000591
2111.97476,0.000576
2110.046016,0.000481
2108.117272,0.00025
2106.188528,0.000176
2104.259784,0.000339
2102.33104,0.000598
2100.402296,0.000805
2098.473552,0.000726
2096.544808,0.000412
2094.616064,0.000155
2092.68732,5.6e-05
2090.758576,8.3e-05
2088.829831,0.000147
2086.901087,0.000127
2084.972343,6.6e-05
2083.043599,0.000197
2081.114855,0.000661
2079.186111,0.00114
2077.257367,0.001029
2075.328623,0.000372
2073.399879,-0.0001
2071.471135,-0.000152
2069.542391,-0.000122
2067.613647,-6.3e-05
2065.684903,0.000144
2063.756158,0.000306
2061.827414,0.000158
2059.89867,-0.000131
2057.969926,-0.000123
2056.041182,0.000297
2054.112438,0.000777
2052.183694,0.00101
2050.25495,0.000955
2048.326206,0.000585
2046.397462,3.3e-05
2044.468718,-0.00038
2042.539974,-0.000293
2040.61123,0.000416
2038.682486,0.001053
2036.753741,0.001115
2034.824997,0.001
2032.896253,0.000792
2030.967509,0.000474
2029.038765,0.000374
2027.110021,0.000324
2025.181277,0.000123
2023.252533,2.5e-05
2021.323789,2.1e-05
2019.395045,-4.9e-05
2017.466301,6.6e-05
2015.537557,0.000463
2013.608813,0.000722
2011.680069,0.000662
2009.751324,0.000544
2007.82258,0.000479
2005.893836,0.000455
2003.965092,0.000516
2002.036348,0.000609
2000.107604,0.000616
1998.17886,0.000518
1996.250116,0.000445
1994.321372,0.000283
1992.392628,-0.000177
1990.463884,-0.000477
1988.53514,-0.000205
1986.606396,0.000176
1984.677651,0.000243
1982.748907,0.000306
1980.820163,0.000556
1978.891419,0.000717
1976.962675,0.000789
1975.033931,0.000679
1973.105187,0.000255
1971.176443,7.8e-05
1969.247699,0.000392
1967.318955,0.000727
1965.390211,0.000787
1963.461467,0.0007
1961.532723,0.000726
1959.603979,0.000912
1957.675234,0.001022
1955.74649,0.000939
1953.817746,0.000803
1951.889002,0.000662
1949.960258,0.000717
1948.031514,0.001118
1946.10277,0.001353
1944.174026,0.001072
1942.245282,0.000596
1940.316538,0.000335
1938.387794,0.000347
1936.45905,0.000368
1934.530306,0.000259
1932.601562,0.000119
1930.672817,7.3e-05
1928.744073,0.000153
1926.815329,0.000411
1924.886585,0.000809
1922.957841,0.00095
1921.029097,0.000735
1919.100353,0.000609
1917.171609,0.000708
1915.242865,0.000754
1913.314121,0.000678
1911.385377,0.000611
1909.456633,0.000507
1907.527889,0.000354
1905.599144,0.000423
1903.6704,0.000678
1901.741656,0.000757
1899.812912,0.000625
1897.884168,0.000454
1895.955424,0.000294
1894.02668,0.000244
1892.097936,0.000419
1890.169192,0.000629
1888.240448,0.000558
1886.311704,0.000265
1884.38296,0.000121
1882.454216,0.000283
1880.525472,0.000514
1878.596727,0.000557
1876.667983,0.00051
1874.739239,0.000524
1872.810495,0.000512
1870.881751,0.000473
1868.953007,0.000465
1867.024263,0.000432
1865.095519,0.000445
1863.166775,0.000549
1861.238031,0.000615
1859.309287,0.000538
1857.380543,0.000384
1855.451799,0.000336
1853.523055,0.000441
1851.59431,0.000536
1849.665566,0.000471
1847.736822,0.000367
1845.808078,0.000431
1843.879334,0.000556
1841.95059,0.000551
1840.021846,0.000459
1838.093102,0.000389
1836.164358,0.000345
1834.235614,0.000323
1832.30687,0.000371
1830.378126,0.000472
1828.449382,0.000539
1826.520637,0.000568
1824.591893,0.0006
1822.663149,0.000581
1820.734405,0.0005
1818.805661,0.000508
1816.876917,0.00062
1814.948173,0.000655
1813.019429,0.000599
1811.090685,0.000605
1809.161941,0.000647
1807.233197,0.000641
1805.304453,0.000645
1803.375709,0.000661
1801.446965,0.000617
1799.51822,0.000568
1797.589476,0.000578
1795.660732,0.000578
1793.731988,0.000544
1791.803244,0.000509
1789.8745,0.000453
1787.945756,0.000425
1786.017012,0.000462
1784.088268,0.000497
1782.159524,0.000509
1780.23078,0.00049
1778.302036,0.000418
1776.373292,0.000378
1774.444547,0.000436
1772.515803,0.000507
1770.587059,0.000534
1768.658315,0.00056
1766.729571,0.000584
1764.800827,0.000582
1762.872083,0.000574
1760.943339,0.000591
1759.014595,0.000669
1757.085851,0.000805
1755.157107,0.000948
1753.228363,0.001094
1751.299619,0.001248
1749.370875,0.001398
1747.44213,0.001508
1745.513386,0.001496
1743.584642,0.001397
1741.655898,0.001328
1739.727154,0.001261
1737.79841,0.001129
1735.869666,0.000968
1733.940922,0.000819
1732.012178,0.000709
1730.083434,0.000687
1728.15469,0.000715
1726.225946,0.000666
1724.297202,0.000513
1722.368458,0.000358
1720.439713,0.000289
1718.510969,0.000314
1716.582225,0.00038
1714.653481,0.000413
1712.724737,0.000379
1710.795993,0.000312
1708.867249,0.000284
1706.938505,0.000321
1705.009761,0.000367
1703.081017,0.00042
1701.152273,0.000483
1699.223529,0.000526
1697.294785,0.000596
1695.36604,0.000653
1693.437296,0.000628
1691.508552,0.000606
1689.579808,0.000649
1687.651064,0.000744
1685.72232,0.00083
1683.793576,0.000806
1681.864832,0.00071
1679.936088,0.000681
1678.007344,0.000702
1676.0786,0.000672
1674.149856,0.000637
1672.221112,0.000677
1670.292368,0.000728
1668.363623,0.000723
1666.434879,0.000721
1664.506135,0.000794
1662.577391,0.000921
1660.648647,0.001037
1658.719903,0.001112
1656.791159,0.001185
1654.862415,0.001283
1652.933671,0.001338
1651.004927,0.001323
1649.076183,0.001339
1647.147439,0.001383
1645.218695,0.001313
1643.289951,0.001145
1641.361206,0.00105
1639.432462,0.001062
1637.503718,0.001083
1635.574974,0.001015
1633.64623,0.000854
1631.717486,0.000711
1629.788742,0.000671
1627.859998,0.000704
1625.931254,0.000736
1624.00251,0.000727
1622.073766,0.000671
1620.145022,0.00061
1618.216278,0.000568
1616.287533,0.000524
1614.358789,0.000468
1612.430045,0.000416
1610.501301,0.000385
1608.572557,0.000398
1606.643813,0.000395
1604.715069,0.000321
1602.786325,0.00026
1600.857581,0.000265
1598.928837,0.00027
1597.000093,0.00025
1595.071349,0.000246
1593.142605,0.000253
1591.213861,0.000246
1589.285116,0.000239
1587.356372,0.000244
1585.427628,0.000242
1583.498884,0.000222
1581.57014,0.000174
1579.641396,0.000153
1577.712652,0.000232
1575.783908,0.000336
1573.855164,0.000398
1571.92642,0.000454
1569.997676,0.000476
1568.068932,0.000435
1566.140188,0.0004
1564.211443,0.00044
1562.282699,0.000554
1560.353955,0.000708
1558.425211,0.00084
1556.496467,0.000916
1554.567723,0.000962
1552.638979,0.000993
1550.710235,0.001014
1548.781491,0.001033
1546.852747,0.001069
1544.924003,0.00114
1542.995259,0.001225
1541.066515,0.001264
1539.137771,0.001217
1537.209026,0.001166
1535.280282,0.001182
1533.351538,0.001204
1531.422794,0.00118
1529.49405,0.001165
1527.565306,0.001192
1525.636562,0.001214
1523.707818,0.001237
1521.779074,0.001283
1519.85033,0.001301
1517.921586,0.001273
1515.992842,0.001208
1514.064098,0.001104
1512.135354,0.000997
1510.206609,0.000959
1508.277865,0.001028
1506.349121,0.001067
1504.420377,0.000957
1502.491633,0.000839
1500.562889,0.000854
1498.634145,0.000955
1496.705401,0.001019
1494.776657,0.001011
1492.847913,0.000997
1490.919169,0.001016
1488.990425,0.00102
1487.061681,0.000977
1485.132936,0.000898
1483.204192,0.000804
1481.275448,0.000766
1479.346704,0.00082
1477.41796,0.000892
1475.489216,0.000917
1473.560472,0.000929
1471.631728,0.00097
1469.702984,0.001042
1467.77424,0.001143
1465.845496,0.001232
1463.916752,0.00128
1461.988008,0.001341
1460.059264,0.001477
1458.130519,0.001622
1456.201775,0.001637
1454.273031,0.001547
1452.344287,0.001472
1450.415543,0.001435
1448.486799,0.001419
1446.558055,0.001398
1444.629311,0.00134
1442.700567,0.001265
1440.771823,0.001203
1438.843079,0.001146
1436.914335,0.001036
1434.985591,0.000863
1433.056847,0.000733
1431.128102,0.00068
1429.199358,0.00066
1427.270614,0.000682
1425.34187,0.000716
1423.413126,0.000719
1421.484382,0.000731
1419.555638,0.000757
1417.626894,0.000747
1415.69815,0.000701
1413.769406,0.000638
1411.840662,0.000581
1409.911918,0.000563
1407.983174,0.000592
1406.054429,0.000641
1404.125685,0.000682
1402.196941,0.000701
1400.268197,0.000712
1398.339453,0.000731
1396.410709,0.000749
1394.481965,0.000735
1392.553221,0.000689
1390.624477,0.00064
1388.695733,0.000625
1386.766989,0.000674
1384.838245,0.000736
1382.909501,0.000767
1380.980757,0.000828
1379.052012,0.000947
1377.123268,0.001057
1375.194524,0.001084
1373.26578,0.001022
1371.337036,0.000932
1369.408292,0.000877
1367.479548,0.000869
1365.550804,0.000885
1363.62206,0.000896
1361.693316,0.000889
1359.764572,0.000865
1357.835828,0.000825
1355.907084,0.000772
1353.97834,0.000726
1352.049595,0.000692
1350.120851,0.000667
1348.192107,0.000661
1346.263363,0.000656
1344.334619,0.000658
1342.405875,0.000684
1340.477131,0.000711
1338.548387,0.000728
1336.619643,0.000759
1334.690899,0.000788
1332.762155,0.000752
1330.833411,0.000678
1328.904667,0.000639
1326.975922,0.000627
1325.047178,0.000643
1323.118434,0.000681
1321.18969,0.000689
1319.260946,0.000688
1317.332202,0.000731
1315.403458,0.000771
1313.474714,0.000763
1311.54597,0.000739
1309.617226,0.000746
1307.688482,0.000759
1305.759738,0.00072
1303.830994,0.000664
1301.90225,0.000667
1299.973505,0.00071
1298.044761,0.00073
1296.116017,0.000713
1294.187273,0.000709
1292.258529,0.000741
1290.329785,0.000768
1288.401041,0.000767
1286.472297,0.000742
1284.543553,0.000704
1282.614809,0.000666
1280.686065,0.000627
1278.757321,0.000613
1276.828577,0.000635
1274.899832,0.000657
1272.971088,0.000678
1271.042344,0.000736
1269.1136,0.000821
1267.184856,0.000886
1265.256112,0.000907
1263.327368,0.000926
1261.398624,0.000958
1259.46988,0.000941
1257.541136,0.00086
1255.612392,0.000756
1253.683648,0.000696
1251.754904,0.000733
1249.82616,0.000797
1247.897415,0.000795
1245.968671,0.000761
1244.039927,0.000767
1242.111183,0.000792
1240.182439,0.000776
1238.253695,0.000761
1236.324951,0.00079
1234.396207,0.000829
1232.467463,0.000836
1230.538719,0.000787
1228.609975,0.000736
1226.681231,0.000741
1224.752487,0.000763
1222.823743,0.000759
1220.894998,0.000749
1218.966254,0.000767
1217.03751,0.000822
1215.108766,0.000857
1213.180022,0.000825
1211.251278,0.000749
1209.322534,0.000694
1207.39379,0.000696
1205.465046,0.000693
1203.536302,0.00066
1201.607558,0.000672
1199.678814,0.000715
1197.75007,0.000717
1195.821325,0.000692
1193.892581,0.000679
1191.963837,0.000687
1190.035093,0.000695
1188.106349,0.000683
1186.177605,0.000653
1184.248861,0.000621
1182.320117,0.000625
1180.391373,0.000663
1178.462629,0.000686
1176.533885,0.000706
1174.605141,0.000751
1172.676397,0.000797
1170.747653,0.000847
1168.818908,0.000948
1166.890164,0.001057
1164.96142,0.001108
1163.032676,0.001142
1161.103932,0.001171
1159.175188,0.001202
1157.246444,0.001258
1155.3177,0.001247
1153.388956,0.001148
1151.460212,0.001099
1149.531468,0.001128
1147.602724,0.001115
1145.67398,0.001014
1143.745236,0.000894
1141.816491,0.000825
1139.887747,0.000785
1137.959003,0.000734
1136.030259,0.00069
1134.101515,0.000639
1132.172771,0.000567
1130.244027,0.000525
1128.315283,0.000565
1126.386539,0.000635
1124.457795,0.000649
1122.529051,0.000671
1120.600307,0.000774
1118.671563,0.000876
1116.742818,0.000944
1114.814074,0.001013
1112.88533,0.001018
1110.956586,0.000938
1109.027842,0.000898
1107.099098,0.000973
1105.170354,0.001105
1103.24161,0.001183
1101.312866,0.001176
1099.384122,0.00118
1097.455378,0.001207
1095.526634,0.001174
1093.59789,0.001106
1091.669146,0.001041
1089.740401,0.000967
1087.811657,0.000908
1085.882913,0.000889
1083.954169,0.000901
1082.025425,0.000889
1080.096681,0.000821
1078.167937,0.000739
1076.239193,0.000724
1074.310449,0.000827
1072.381705,0.000943
1070.452961,0.000927
1068.524217,0.000811
1066.595473,0.000735
1064.666728,0.000767
1062.737984,0.00082
1060.80924,0.000796
1058.880496,0.000749
1056.951752,0.000754
1055.023008,0.000804
1053.094264,0.00088
1051.16552,0.000962
1049.236776,0.001022
1047.308032,0.001077
1045.379288,0.001148
1043.450544,0.001193
1041.5218,0.001181
1039.593056,0.001172
1037.664311,0.001203
1035.735567,0.00122
1033.806823,0.001236
1031.878079,0.001368
1029.949335,0.001595
1028.020591,0.001738
1026.091847,0.001784
1024.163103,0.00191
1022.234359,0.002165
1020.305615,0.002438
1018.376871,0.0026
1016.448127,0.002565
1014.519383,0.002343
1012.590639,0.001994
1010.661894,0.001632
1008.73315,0.001367
1006.804406,0.001156
1004.875662,0.00094
1002.946918,0.00076
1001.018174,0.000716
999.08943,0.000803
997.160686,0.000831
995.231942,0.000711
993.303198,0.000581
991.374454,0.000532
989.44571,0.000504
987.516966,0.000441
985.588221,0.000381
983.659477,0.000382
981.730733,0.000414
979.801989,0.000447
977.873245,0.000501
975.944501,0.000553
974.015757,0.000546
972.087013,0.000508
970.158269,0.000501
968.229525,0.00051
966.300781,0.000534
964.372037,0.000598
962.443293,0.000625
960.514549,0.000565
958.585804,0.000538
956.65706,0.000598
954.728316,0.000569
952.799572,0.000425
950.870828,0.000383
948.942084,0.000459
947.01334,0.000487
945.084596,0.000444
943.155852,0.000401
941.227108,0.000395
939.298364,0.000402
937.36962,0.000415
935.440876,0.000456
933.512132,0.000482
931.583387,0.000452
929.654643,0.000406
927.725899,0.00036
925.797155,0.000266
923.868411,0.000186
921.939667,0.000239
920.010923,0.000329
918.082179,0.000333
916.153435,0.000311
914.224691,0.000317
912.295947,0.000336
910.367203,0.000356
908.438459,0.000341
906.509714,0.000261
904.58097,0.000182
902.652226,0.000196
900.723482,0.000317
898.794738,0.000461
896.865994,0.000522
894.93725,0.000472
893.008506,0.000386
891.079762,0.000418
889.151018,0.000573
887.222274,0.00059
885.29353,0.00035
883.364786,0.0001
881.436042,6e-05
879.507297,0.000167
877.578553,0.000302
875.649809,0.000389
873.721065,0.000317
871.792321,0.000191
869.863577,0.000229
867.934833,0.000354
866.006089,0.000374
864.077345,0.000279
862.148601,0.00019
860.219857,0.000166
858.291113,0.000154
856.362369,9.3e-05
854.433625,-1.6e-05
852.50488,-6.8e-05
850.576136,7e-06
848.647392,0.000124
846.718648,0.000191
844.789904,0.00019
842.86116,0.000166
840.932416,0.000168
839.003672,0.000207
837.074928,0.000293
835.146184,0.000385
833.21744,0.00042
831.288696,0.000404
829.359952,0.000432
827.431207,0.000559
825.502463,0.000641
823.573719,0.000509
821.644975,0.000272
819.716231,0.00018
817.787487,0.000201
815.858743,0.000121
813.929999,2.1e-05
812.001255,9.9e-05
810.072511,0.000275
808.143767,0.000382
806.215023,0.000376
804.286279,0.000311
802.357535,0.000341
800.42879,0.000471
798.500046,0.000533
796.571302,0.000555
794.642558,0.000525
792.713814,0.000334
790.78507,0.000191
788.856326,0.00026
786.927582,0.000361
784.998838,0.000374
783.070094,0.000353
781.14135,0.00032
779.212606,0.000255
777.283862,0.000178
775.355117,0.000157
773.426373,0.00024
771.497629,0.000345
769.568885,0.000344
767.640141,0.000249
765.711397,0.000122
763.782653,5e-05
761.853909,0.000138
759.925165,0.000301
757.996421,0.000399
756.067677,0.000442
754.138933,0.00039
752.210189,0.000181
750.281445,1.1e-05
748.3527,7.9e-05
746.423956,0.000222
744.495212,0.000236
742.566468,0.000198
740.637724,0.000249
738.70898,0.00029
736.780236,0.000189
734.851492,0.000127
732.922748,0.000207
730.994004,0.000236
729.06526,0.000167
727.136516,0.00011
725.207772,0.000103
723.279028,8.1e-05
721.350283,3.7e-05
719.421539,1.4e-05
717.492795,-2.3e-05
715.564051,-7e-05
713.635307,-9.9e-05
711.706563,-0.000151
709.777819,-0.000209
707.849075,-0.000185
705.920331,-6.8e-05
703.991587,9e-05
702.062843,0.000307
700.134099,0.000586
698.205355,0.000826
696.27661,0.00081
694.347866,0.000452
692.419122,0.000105
690.490378,8.1e-05
688.561634,0.000188
686.63289,0.000166
684.704146,0.000122
682.775402,0.000211
680.846658,0.00029
678.917914,0.000225
676.98917,0.0001
675.060426,7.3e-05
673.131682,0.000209
671.202938,0.000394
669.274193,0.000506
667.345449,0.000425
665.416705,0.000181
663.487961,2.8e-05
661.559217,3e-05
659.630473,3.4e-05
657.701729,-4e-06
655.772985,4.9e-05
653.844241,0.000243
651.915497,0.000328
649.986753,0.000177
648.058009,-2.2e-05
646.129265,-9e-05
644.200521,1.4e-05
642.271776,0.0001
640.343032,5.4e-05
638.414288,-3.4e-05
636.485544,-0.000167
634.5568,-0.000232
632.628056,-8.9e-05
630.699312,0.00012
628.770568,0.000167
626.841824,-7.2e-05
624.91308,-0.000328
622.984336,-0.000156
621.055592,0.000196
619.126848,7.3e-05
617.198103,-0.000414
615.269359,-0.000579
613.340615,-0.000201
611.411871,0.000322
609.483127,0.000519
607.554383,0.000277
605.625639,-0.000175
603.696895,-0.000464
601.768151,-0.000437
599.839407,-0.000271
597.910663,-8.6e-05
595.981919,6.8e-05
594.053175,0.000115
592.124431,8.5e-05
590.195686,0.000125
588.266942,0.000281
586.338198,0.000327
584.409454,0.000237
582.48071,0.000204
580.551966,0.000169
578.623222,6.6e-05
576.694478,-4.2e-05
574.765734,-1.6e-05
572.83699,0.000168
570.908246,0.000223
568.979502,7.6e-05
567.050758,4.5e-05
565.122013,0.000259
563.193269,0.000484
561.264525,0.000527
559.335781,0.000445
557.407037,0.000387
555.478293,0.000492
553.549549,0.000733
551.620805,0.000753
549.692061,0.000288
547.763317,-0.000241
545.834573,-0.000204
543.905829,0.00028
541.977085,0.00062
540.048341,0.000615
538.119596,0.000407
536.190852,0.000157
534.262108,-5e-06
532.333364,-0.000182
530.40462,-0.000495
528.475876,-0.000743
526.547132,-0.000775
524.618388,-0.000579
522.689644,-0.000226
520.7609,-2.3e-05
518.832156,-0.000157
516.903412,-0.000416
514.974668,-0.000492
513.045924,-0.00042
511.117179,-0.000446
509.188435,-0.000563
507.259691,-0.000446
505.330947,4.4e-05
503.402203,0.000479
501.473459,0.00037
499.544715,-0.000178
497.615971,-0.000597
495.687227,-0.000522
493.758483,-0.000178
491.829739,9.9e-05
489.900995,0.000284
487.972251,0.000438
486.043506,0.000354
484.114762,-0.000118
482.186018,-0.000544
480.257274,-0.000648
478.32853,-0.000736
476.399786,-0.000913
474.471042,-0.001002
472.542298,-0.000819
470.613554,-0.000346
468.68481,0.000284
466.756066,0.000933
464.827322,0.001221
462.898578,0.000967
460.969834,0.000749
459.041089,0.001089
457.112345,0.001726
455.183601,0.002131
453.254857,0.002155
451.326113,0.00196
449.397369,0.001613
447.468625,0.000802
445.539881,-0.00053
443.611137,-0.001624
441.682393,-0.001971
439.753649,-0.0018
437.824905,-0.001338
435.896161,-0.000778
433.967417,-0.000234
432.038672,0.000334
430.109928,0.000411
428.181184,-0.00045
426.25244,-0.001327
424.323696,-0.001502
422.394952,-0.001594
420.466208,-0.001754
418.537464,-0.001399
416.60872,-0.000426
414.679976,0.000515
412.751232,0.000697
410.822488,0.000206
408.893744,-0.000213
406.964999,-9.3e-05
405.036255,0.000562
403.107511,0.001958
401.178767,0.003218
399.250023,0.002339
