3996.35772,0.008828
3994.428976,0.008911
3992.500232,0.008959
3990.571488,0.008818
3988.642744,0.008495
3986.714,0.008264
3984.785256,0.008355
3982.856511,0.00864
3980.927767,0.008884
3978.999023,0.009074
3977.070279,0.00915
3975.141535,0.008977
3973.212791,0.008741
3971.284047,0.008706
3969.355303,0.008793
3967.426559,0.008873
3965.497815,0.008956
3963.569071,0.009034
3961.640327,0.009073
3959.711583,0.00903
3957.782839,0.008919
3955.854094,0.008823
3953.92535,0.008822
3951.996606,0.008933
3950.067862,0.008996
3948.139118,0.008911
3946.210374,0.00884
3944.28163,0.008848
3942.352886,0.008815
3940.424142,0.008693
3938.495398,0.008584
3936.566654,0.008604
3934.63791,0.008709
3932.709166,0.008696
3930.780422,0.008569
3928.851677,0.008594
3926.922933,0.008705
3924.994189,0.00858
3923.065445,0.008273
3921.136701,0.008155
3919.207957,0.008364
3917.279213,0.008633
3915.350469,0.00871
3913.421725,0.00858
3911.492981,0.008371
3909.564237,0.008243
3907.635493,0.00821
3905.706749,0.008258
3903.778004,0.008446
3901.84926,0.008709
3899.920516,0.008847
3897.991772,0.008728
3896.063028,0.008508
3894.134284,0.008449
3892.20554,0.008482
3890.276796,0.008491
3888.348052,0.008651
3886.419308,0.008853
3884.490564,0.008734
3882.56182,0.008488
3880.633076,0.008457
3878.704332,0.008501
3876.775587,0.00847
3874.846843,0.008501
3872.918099,0.008682
3870.989355,0.008849
3869.060611,0.008894
3867.131867,0.008914
3865.203123,0.008855
3863.274379,0.008595
3861.345635,0.008332
3859.416891,0.00836
3857.488147,0.008629
3855.559403,0.00884
3853.630659,0.008811
3851.701915,0.008591
3849.77317,0.008331
3847.844426,0.008179
3845.915682,0.008207
3843.986938,0.008302
3842.058194,0.008358
3840.12945,0.008443
3838.200706,0.008574
3836.271962,0.008719
3834.343218,0.008822
3832.414474,0.00875
3830.48573,0.008558
3828.556986,0.008458
3826.628242,0.008447
3824.699497,0.008447
3822.770753,0.008499
3820.842009,0.008554
3818.913265,0.008588
3816.984521,0.008638
3815.055777,0.008637
3813.127033,0.008644
3811.198289,0.008665
3809.269545,0.008545
3807.340801,0.008353
3805.412057,0.00837
3803.483313,0.008557
3801.554569,0.008528
3799.625825,0.008341
3797.69708,0.00833
3795.768336,0.008387
3793.839592,0.00838
3791.910848,0.008358
3789.982104,0.008265
3788.05336,0.008158
3786.124616,0.008263
3784.195872,0.008471
3782.267128,0.008472
3780.338384,0.008452
3778.40964,0.008667
3776.480896,0.008751
3774.552152,0.008441
3772.623408,0.008164
3770.694663,0.008241
3768.765919,0.008406
3766.837175,0.008394
3764.908431,0.008266
3762.979687,0.008184
3761.050943,0.008183
3759.122199,0.008216
3757.193455,0.00832
3755.264711,0.008528
3753.335967,0.008721
3751.407223,0.008724
3749.478479,0.008679
3747.549735,0.008835
3745.62099,0.008911
3743.692246,0.008556
3741.763502,0.008117
3739.834758,0.008051
3737.906014,0.008223
3735.97727,0.008306
3734.048526,0.008286
3732.119782,0.008168
3730.191038,0.007934
3728.262294,0.007849
3726.33355,0.007994
3724.404806,0.008116
3722.476062,0.008135
3720.547318,0.008103
3718.618573,0.008055
3716.689829,0.008128
3714.761085,0.008325
3712.832341,0.008454
3710.903597,0.008413
3708.974853,0.008256
3707.046109,0.00809
3705.117365,0.007983
3703.188621,0.007923
3701.259877,0.00792
3699.331133,0.008059
3697.402389,0.008251
3695.473645,0.00828
3693.5449,0.008215
3691.616156,0.008178
3689.687412,0.008108
3687.758668,0.00806
3685.829924,0.0082
3683.90118,0.008547
3681.972436,0.008799
3680.043692,0.008732
3678.114948,0.00852
3676.186204,0.008353
3674.25746,0.008466
3672.328716,0.008893
3670.399972,0.009159
3668.471228,0.009052
3666.542483,0.00888
3664.613739,0.008814
3662.684995,0.008814
3660.756251,0.008909
3658.827507,0.009039
3656.898763,0.009065
3654.970019,0.009152
3653.041275,0.009417
3651.112531,0.009617
3649.183787,0.00961
3647.255043,0.009513
3645.326299,0.009422
3643.397555,0.009434
3641.468811,0.009702
3639.540066,0.010017
3637.611322,0.010084
3635.682578,0.010127
3633.753834,0.010384
3631.82509,0.010721
3629.896346,0.010945
3627.967602,0.011005
3626.038858,0.01109
3624.110114,0.011266
3622.18137,0.0113
3620.252626,0.011239
3618.323882,0.011435
3616.395138,0.011878
3614.466393,0.012279
3612.537649,0.012565
3610.608905,0.012802
3608.680161,0.01301
3606.751417,0.013041
3604.822673,0.012756
3602.893929,0.012424
3600.965185,0.012427
3599.036441,0.012712
3597.107697,0.013
3595.178953,0.01321
3593.250209,0.013405
3591.321465,0.013588
3589.392721,0.013834
3587.463976,0.014211
3585.535232,0.014435
3583.606488,0.01431
3581.677744,0.014204
3579.749,0.014367
3577.820256,0.014571
3575.891512,0.014786
3573.962768,0.015161
3572.034024,0.015513
3570.10528,0.015699
3568.176536,0.015894
3566.247792,0.016093
3564.319048,0.016214
3562.390304,0.016485
3560.461559,0.016964
3558.532815,0.017333
3556.604071,0.017442
3554.675327,0.017498
3552.746583,0.017672
3550.817839,0.017845
3548.889095,0.01786
3546.960351,0.01774
3545.031607,0.017717
3543.102863,0.017997
3541.174119,0.018393
3539.245375,0.018652
3537.316631,0.018853
3535.387886,0.019142
3533.459142,0.019446
3531.530398,0.019642
3529.601654,0.019786
3527.67291,0.019949
3525.744166,0.020079
3523.815422,0.020231
3521.886678,0.020471
3519.957934,0.020658
3518.02919,0.020717
3516.100446,0.020738
3514.171702,0.020762
3512.242958,0.02089
3510.314214,0.021252
3508.385469,0.021681
3506.456725,0.021943
3504.527981,0.022098
3502.599237,0.022256
3500.670493,0.022394
3498.741749,0.022468
3496.813005,0.022479
3494.884261,0.022492
3492.955517,0.022633
3491.026773,0.02305
3489.098029,0.023614
3487.169285,0.02389
3485.240541,0.023806
3483.311796,0.023764
3481.383052,0.023958
3479.454308,0.024187
3477.525564,0.024303
3475.59682,0.024433
3473.668076,0.024711
3471.739332,0.02503
3469.810588,0.025257
3467.881844,0.025453
3465.9531,0.025647
3464.024356,0.025758
3462.095612,0.025811
3460.166868,0.025876
3458.238124,0.025962
3456.309379,0.026041
3454.380635,0.026134
3452.451891,0.026316
3450.523147,0.026552
3448.594403,0.026753
3446.665659,0.026914
3444.736915,0.027079
3442.808171,0.02721
3440.879427,0.027238
3438.950683,0.027249
3437.021939,0.027357
3435.093195,0.027487
3433.164451,0.027531
3431.235707,0.027544
3429.306962,0.027636
3427.378218,0.027891
3425.449474,0.028221
3423.52073,0.028362
3421.591986,0.028356
3419.663242,0.028426
3417.734498,0.028507
3415.805754,0.028493
3413.87701,0.028469
3411.948266,0.028476
3410.019522,0.028452
3408.090778,0.028479
3406.162034,0.028654
3404.233289,0.028801
3402.304545,0.028812
3400.375801,0.028856
3398.447057,0.02902
3396.518313,0.029193
3394.589569,0.029286
3392.660825,0.029325
3390.732081,0.029421
3388.803337,0.029628
3386.874593,0.029848
3384.945849,0.029975
3383.017105,0.029954
3381.088361,0.029843
3379.159617,0.02978
3377.230872,0.029712
3375.302128,0.029578
3373.373384,0.029531
3371.44464,0.029641
3369.515896,0.029818
3367.587152,0.030016
3365.658408,0.030177
3363.729664,0.030278
3361.80092,0.030321
3359.872176,0.030261
3357.943432,0.030204
3356.014688,0.030235
3354.085944,0.030212
3352.1572,0.03009
3350.228455,0.030037
3348.299711,0.030132
3346.370967,0.030294
3344.442223,0.030539
3342.513479,0.030809
3340.584735,0.030896
3338.655991,0.030814
3336.727247,0.030764
3334.798503,0.030877
3332.869759,0.031027
3330.941015,0.031025
3329.012271,0.03102
3327.083527,0.031177
3325.154782,0.031322
3323.226038,0.031276
3321.297294,0.031122
3319.36855,0.03104
3317.439806,0.031091
3315.511062,0.031164
3313.582318,0.031107
3311.653574,0.031002
3309.72483,0.031036
3307.796086,0.031127
3305.867342,0.031119
3303.938598,0.031128
3302.009854,0.03124
3300.08111,0.031325
3298.152365,0.031441
3296.223621,0.031659
3294.294877,0.031762
3292.366133,0.031685
3290.437389,0.031655
3288.508645,0.031696
3286.579901,0.031608
3284.651157,0.031463
3282.722413,0.031516
3280.793669,0.031633
3278.864925,0.031523
3276.936181,0.031337
3275.007437,0.031266
3273.078692,0.031148
3271.149948,0.030959
3269.221204,0.030882
3267.29246,0.030948
3265.363716,0.031073
3263.434972,0.031171
3261.506228,0.031188
3259.577484,0.031085
3257.64874,0.03089
3255.719996,0.030697
3253.791252,0.030568
3251.862508,0.030518
3249.933764,0.030528
3248.00502,0.030557
3246.076275,0.030563
3244.147531,0.030505
3242.218787,0.03042
3240.290043,0.030427
3238.361299,0.030517
3236.432555,0.030548
3234.503811,0.030501
3232.575067,0.030398
3230.646323,0.030235
3228.717579,0.030083
3226.788835,0.029985
3224.860091,0.029972
3222.931347,0.030075
3221.002603,0.030135
3219.073858,0.029992
3217.145114,0.029766
3215.21637,0.029634
3213.287626,0.029596
3211.358882,0.029645
3209.430138,0.029739
3207.501394,0.02965
3205.57265,0.029365
3203.643906,0.029152
3201.715162,0.029059
3199.786418,0.029001
3197.857674,0.029011
3195.92893,0.029089
3194.000185,0.029135
3192.071441,0.029096
3190.142697,0.02907
3188.213953,0.029132
3186.285209,0.029143
3184.356465,0.028997
3182.427721,0.028794
3180.498977,0.028569
3178.570233,0.02831
3176.641489,0.028169
3174.712745,0.028197
3172.784001,0.028254
3170.855257,0.028238
3168.926513,0.028172
3166.997768,0.028099
3165.069024,0.027929
3163.14028,0.027679
3161.211536,0.027589
3159.282792,0.027712
3157.354048,0.027761
3155.425304,0.027548
3153.49656,0.027283
3151.567816,0.027173
3149.639072,0.027108
3147.710328,0.027019
3145.781584,0.026972
3143.85284,0.026911
3141.924096,0.026762
3139.995351,0.026625
3138.066607,0.026637
3136.137863,0.026717
3134.209119,0.026647
3132.280375,0.026495
3130.351631,0.026504
3128.422887,0.026596
3126.494143,0.026604
3124.565399,0.026522
3122.636655,0.026372
3120.707911,0.026253
3118.779167,0.02621
3116.850423,0.026153
3114.921678,0.026074
3112.992934,0.026034
3111.06419,0.026027
3109.135446,0.026026
3107.206702,0.025998
3105.277958,0.025937
3103.349214,0.025871
3101.42047,0.025757
3099.491726,0.025596
3097.562982,0.02556
3095.634238,0.025679
3093.705494,0.025775
3091.77675,0.025781
3089.848006,0.02582
3087.919261,0.025949
3085.990517,0.026052
3084.061773,0.026028
3082.133029,0.025929
3080.204285,0.025892
3078.275541,0.025936
3076.346797,0.025972
3074.418053,0.026
3072.489309,0.026091
3070.560565,0.026242
3068.631821,0.026339
3066.703077,0.026254
3064.774333,0.026079
3062.845589,0.02602
3060.916844,0.026057
3058.9881,0.026051
3057.059356,0.025946
3055.130612,0.025808
3053.201868,0.02576
3051.273124,0.025786
3049.34438,0.025742
3047.415636,0.025621
3045.486892,0.025597
3043.558148,0.02575
3041.629404,0.025905
3039.70066,0.025865
3037.771916,0.025676
3035.843171,0.025534
3033.914427,0.025544
3031.985683,0.025675
3030.056939,0.025851
3028.128195,0.025988
3026.199451,0.02609
3024.270707,0.026232
3022.341963,0.026401
3020.413219,0.026586
3018.484475,0.026785
3016.555731,0.026973
3014.626987,0.027207
3012.698243,0.027471
3010.769499,0.027709
3008.840754,0.027972
3006.91201,0.028215
3004.983266,0.028425
3003.054522,0.028715
3001.125778,0.029122
2999.197034,0.029605
2997.26829,0.030096
2995.339546,0.030539
2993.410802,0.030939
2991.482058,0.031359
2989.553314,0.031872
2987.62457,0.032517
2985.695826,0.033253
2983.767081,0.033976
2981.838337,0.034685
2979.909593,0.035417
2977.980849,0.036131
2976.052105,0.036827
2974.123361,0.037561
2972.194617,0.038427
2970.265873,0.039507
2968.337129,0.040691
2966.408385,0.041846
2964.479641,0.043025
2962.550897,0.044231
2960.622153,0.045296
2958.693409,0.04615
2956.764664,0.046958
2954.83592,0.047752
2952.907176,0.048344
2950.978432,0.048747
2949.049688,0.049114
2947.120944,0.049517
2945.1922,0.050053
2943.263456,0.050785
2941.334712,0.051743
2939.405968,0.052921
2937.477224,0.05421
2935.54848,0.055468
2933.619736,0.056598
2931.690992,0.057616
2929.762247,0.058574
2927.833503,0.059446
2925.904759,0.060095
2923.976015,0.060352
2922.047271,0.06011
2920.118527,0.059311
2918.189783,0.058019
2916.261039,0.056428
2914.332295,0.054751
2912.403551,0.053114
2910.474807,0.051602
2908.546063,0.050342
2906.617319,0.049311
2904.688574,0.048333
2902.75983,0.047372
2900.831086,0.046492
2898.902342,0.045751
2896.973598,0.045154
2895.044854,0.044581
2893.11611,0.043972
2891.187366,0.0434
2889.258622,0.042953
2887.329878,0.042684
2885.401134,0.042475
2883.47239,0.042224
2881.543646,0.042058
2879.614902,0.042082
2877.686157,0.042365
2875.757413,0.042987
2873.828669,0.043775
2871.899925,0.044447
2869.971181,0.044956
2868.042437,0.045278
2866.113693,0.045238
2864.184949,0.044964
2862.256205,0.044868
2860.327461,0.04509
2858.398717,0.045428
2856.469973,0.045658
2854.541229,0.045675
2852.612485,0.045374
2850.68374,0.044587
2848.754996,0.043222
2846.826252,0.041415
2844.897508,0.039496
2842.968764,0.037691
2841.04002,0.036034
2839.111276,0.03461
2837.182532,0.033514
2835.253788,0.032636
2833.325044,0.031886
2831.3963,0.031299
2829.467556,0.03085
2827.538812,0.030469
2825.610067,0.030068
2823.681323,0.029596
2821.752579,0.029128
2819.823835,0.028753
2817.895091,0.028478
2815.966347,0.028208
2814.037603,0.027886
2812.108859,0.027573
2810.180115,0.027318
2808.251371,0.027106
2806.322627,0.026932
2804.393883,0.026772
2802.465139,0.026573
2800.536395,0.026381
2798.60765,0.02629
2796.678906,0.026246
2794.750162,0.026116
2792.821418,0.025885
2790.892674,0.025676
2788.96393,0.025545
2787.035186,0.025386
2785.106442,0.025162
2783.177698,0.024992
2781.248954,0.024936
2779.32021,0.024882
2777.391466,0.024744
2775.462722,0.024576
2773.533977,0.024457
2771.605233,0.024394
2769.676489,0.024323
2767.747745,0.024199
2765.819001,0.02405
2763.890257,0.023885
2761.961513,0.023694
2760.032769,0.023526
2758.104025,0.023422
2756.175281,0.023411
2754.246537,0.023468
2752.317793,0.023454
2750.389049,0.023359
2748.460305,0.023296
2746.53156,0.02326
2744.602816,0.023171
2742.674072,0.02301
2740.745328,0.022847
2738.816584,0.022749
2736.88784,0.022723
2734.959096,0.022721
2733.030352,0.022659
2731.101608,0.022512
2729.172864,0.022324
2727.24412,0.022158
2725.315376,0.022058
2723.386632,0.021992
2721.457888,0.021909
2719.529143,0.021823
2717.600399,0.021759
2715.671655,0.021702
2713.742911,0.021629
2711.814167,0.021545
2709.885423,0.021496
2707.956679,0.021499
2706.027935,0.021499
2704.099191,0.021435
2702.170447,0.02129
2700.241703,0.021124
2698.312959,0.021047
2696.384215,0.021086
2694.45547,0.021148
2692.526726,0.021159
2690.597982,0.021109
2688.669238,0.021007
2686.740494,0.020944
2684.81175,0.020956
2682.883006,0.02096
2680.954262,0.020975
2679.025518,0.021058
2677.096774,0.021151
2675.16803,0.021216
2673.239286,0.021285
2671.310542,0.02135
2669.381798,0.021416
2667.453053,0.021535
2665.524309,0.021653
2663.595565,0.021685
2661.666821,0.021709
2659.738077,0.021813
2657.809333,0.021913
2655.880589,0.021925
2653.951845,0.02189
2652.023101,0.021879
2650.094357,0.021895
2648.165613,0.021879
2646.236869,0.021798
2644.308125,0.021654
2642.379381,0.021503
2640.450636,0.021462
2638.521892,0.021494
2636.593148,0.021437
2634.664404,0.021296
2632.73566,0.021202
2630.806916,0.021164
2628.878172,0.021101
2626.949428,0.021005
2625.020684,0.020972
2623.09194,0.021031
2621.163196,0.02102
2619.234452,0.020843
2617.305708,0.020657
2615.376963,0.020548
2613.448219,0.020394
2611.519475,0.02019
2609.590731,0.020085
2607.661987,0.020104
2605.733243,0.020114
2603.804499,0.020026
2601.875755,0.019928
2599.947011,0.019947
2598.018267,0.019925
2596.089523,0.019674
2594.160779,0.019373
2592.232035,0.019234
2590.303291,0.019237
2588.374546,0.019247
2586.445802,0.019103
2584.517058,0.018797
2582.588314,0.018557
2580.65957,0.01851
2578.730826,0.018545
2576.802082,0.018593
2574.873338,0.018596
2572.944594,0.018505
2571.01585,0.01838
2569.087106,0.018283
2567.158362,0.018254
2565.229618,0.018208
2563.300874,0.018103
2561.372129,0.01814
2559.443385,0.018275
2557.514641,0.018229
2555.585897,0.018014
2553.657153,0.01778
2551.728409,0.017556
2549.799665,0.017381
2547.870921,0.017288
2545.942177,0.017251
2544.013433,0.017301
2542.084689,0.017405
2540.155945,0.017446
2538.227201,0.017388
2536.298456,0.017295
2534.369712,0.017289
2532.440968,0.017407
2530.512224,0.017497
2528.58348,0.017425
2526.654736,0.017236
2524.725992,0.017043
2522.797248,0.016975
2520.868504,0.01704
2518.93976,0.017052
2517.011016,0.016931
2515.082272,0.016817
2513.153528,0.01685
2511.224784,0.016944
2509.296039,0.016859
2507.367295,0.016569
2505.438551,0.016283
2503.509807,0.016143
2501.581063,0.016119
2499.652319,0.016099
2497.723575,0.016011
2495.794831,0.015879
2493.866087,0.015802
2491.937343,0.015849
2490.008599,0.015981
2488.079855,0.016091
2486.151111,0.016109
2484.222366,0.016116
2482.293622,0.016148
2480.364878,0.016055
2478.436134,0.015785
2476.50739,0.015499
2474.578646,0.015346
2472.649902,0.015285
2470.721158,0.015187
2468.792414,0.015116
2466.86367,0.015136
2464.934926,0.01507
2463.006182,0.014918
2461.077438,0.014912
2459.148694,0.015094
2457.219949,0.015283
2455.291205,0.015277
2453.362461,0.015108
2451.433717,0.014949
2449.504973,0.014791
2447.576229,0.014553
2445.647485,0.014264
2443.718741,0.014065
2441.789997,0.014074
2439.861253,0.01418
2437.932509,0.014221
2436.003765,0.014275
2434.075021,0.01438
2432.146277,0.014389
2430.217532,0.014238
2428.288788,0.013992
2426.360044,0.013859
2424.4313,0.013978
2422.502556,0.014081
2420.573812,0.013888
2418.645068,0.013581
2416.716324,0.013486
2414.78758,0.01361
2412.858836,0.013735
2410.930092,0.013758
2409.001348,0.013708
2407.072604,0.013646
2405.143859,0.0136
2403.215115,0.013548
2401.286371,0.013466
2399.357627,0.013321
2397.428883,0.013156
2395.500139,0.013113
2393.571395,0.013195
2391.642651,0.013288
2389.713907,0.013329
2387.785163,0.013314
2385.856419,0.013265
2383.927675,0.013217
2381.998931,0.013233
2380.070187,0.013348
2378.141442,0.01351
2376.212698,0.0137
2374.283954,0.013947
2372.35521,0.014189
2370.426466,0.014337
2368.497722,0.014479
2366.568978,0.014732
2364.640234,0.015013
2362.71149,0.015179
2360.782746,0.015173
2358.854002,0.015026
2356.925258,0.014841
2354.996514,0.014675
2353.06777,0.014486
2351.139025,0.014244
2349.210281,0.014095
2347.281537,0.014146
2345.352793,0.014249
2343.424049,0.014312
2341.495305,0.014423
2339.566561,0.014576
2337.637817,0.014686
2335.709073,0.014714
2333.780329,0.01466
2331.851585,0.014542
2329.922841,0.014452
2327.994097,0.014617
2326.065352,0.015075
2324.136608,0.01536
2322.207864,0.015103
2320.27912,0.014615
2318.350376,0.014259
2316.421632,0.013948
2314.492888,0.013582
2312.564144,0.013282
2310.6354,0.013124
2308.706656,0.013019
2306.777912,0.01286
2304.849168,0.012617
2302.920424,0.012323
2300.99168,0.012039
2299.062935,0.011854
2297.134191,0.011858
2295.205447,0.01203
2293.276703,0.012161
2291.347959,0.012081
2289.419215,0.011993
2287.490471,0.012033
2285.561727,0.011836
2283.632983,0.011317
2281.704239,0.010957
2279.775495,0.010883
2277.846751,0.010773
2275.918007,0.010391
2273.989262,0.009886
2272.060518,0.009699
2270.131774,0.009756
2268.20303,0.009627
2266.274286,0.00944
2264.345542,0.009372
2262.416798,0.009276
2260.488054,0.009135
2258.55931,0.008946
2256.630566,0.008578
2254.701822,0.007985
2252.773078,0.007373
2250.844334,0.007145
2248.91559,0.007409
2246.986845,0.007786
2245.058101,0.008008
2243.129357,0.008061
2241.200613,0.008044
2239.271869,0.008146
2237.343125,0.00827
2235.414381,0.008185
2233.485637,0.007821
2231.556893,0.007196
2229.628149,0.006613
2227.699405,0.006449
2225.770661,0.006503
2223.841917,0.006279
2221.913173,0.00583
2219.984428,0.00561
2218.055684,0.005878
2216.12694,0.006455
2214.198196,0.006698
2212.269452,0.006242
2210.340708,0.00557
2208.411964,0.005192
2206.48322,0.005132
2204.554476,0.005299
2202.625732,0.005538
2200.696988,0.005776
2198.768244,0.00592
2196.8395,0.005728
2194.910755,0.005423
2192.982011,0.00523
2191.053267,0.005056
2189.124523,0.005128
2187.195779,0.005444
2185.267035,0.005538
2183.338291,0.005207
2181.409547,0.004749
2179.480803,0.004615
2177.552059,0.004752
2175.623315,0.004664
2173.694571,0.004302
2171.765827,0.004216
2169.837083,0.004731
2167.908338,0.005408
2165.979594,0.005439
2164.05085,0.004792
2162.122106,0.004012
2160.193362,0.003022
2158.264618,0.002025
2156.335874,0.001834
2154.40713,0.002264
2152.478386,0.002659
2150.549642,0.003026
2148.620898,0.003365
2146.692154,0.003517
2144.76341,0.003741
2142.834666,0.003988
2140.905921,0.004083
2138.977177,0.004336
2137.048433,0.004677
2135.119689,0.004782
2133.190945,0.004845
2131.262201,0.005264
2129.333457,0.005906
2127.404713,0.006309
2125.475969,0.006507
2123.547225,0.006735
2121.618481,0.006984
2119.689737,0.007112
2117.760993,0.007087
2115.832248,0.007255
2113.903504,0.007729
2111.97476,0.00797
2110.046016,0.00768
2108.117272,0.00737
2106.188528,0.007515
2104.259784,0.007903
2102.33104,0.008171
2100.402296,0.008165
2098.473552,0.007916
2096.544808,0.007515
2094.616064,0.007174
2092.68732,0.007169
2090.758576,0.007341
2088.829831,0.007542
2086.901087,0.007829
2084.972343,0.007861
2083.043599,0.007545
2081.114855,0.007394
2079.186111,0.007558
2077.257367,0.007673
2075.328623,0.007526
2073.399879,0.007228
2071.471135,0.007011
2069.542391,0.006871
2067.613647,0.006663
2065.684903,0.006561
2063.756158,0.006609
2061.827414,0.006387
2059.89867,0.005998
2057.969926,0.0061
2056.041182,0.006529
2054.112438,0.006562
2052.183694,0.006232
2050.25495,0.0059
2048.326206,0.005512
2046.397462,0.005011
2044.468718,0.004528
2042.539974,0.004203
2040.61123,0.004041
2038.682486,0.003841
2036.753741,0.003669
2034.824997,0.003595
2032.896253,0.003334
2030.967509,0.003111
2029.038765,0.003174
2027.110021,0.003173
2025.181277,0.003009
2023.252533,0.002787
2021.323789,0.002671
2019.395045,0.002948
2017.466301,0.003319
2015.537557,0.003265
2013.608813,0.003123
2011.680069,0.003433
2009.751324,0.003914
2007.82258,0.004132
2005.893836,0.004151
2003.965092,0.00413
2002.036348,0.004132
2000.107604,0.004095
1998.17886,0.0039
1996.250116,0.003721
1994.321372,0.003693
1992.392628,0.003661
1990.463884,0.003687
1988.53514,0.003985
1986.606396,0.004429
1984.677651,0.004586
1982.748907,0.004393
1980.820163,0.004184
1978.891419,0.004042
1976.962675,0.004074
1975.033931,0.004172
1973.105187,0.003875
1971.176443,0.00349
1969.247699,0.003659
1967.318955,0.004163
1965.390211,0.00437
1963.461467,0.004227
1961.532723,0.004221
1959.603979,0.004588
1957.675234,0.004995
1955.74649,0.005281
1953.817746,0.005561
1951.889002,0.005678
1949.960258,0.005725
1948.031514,0.005863
1946.10277,0.005848
1944.174026,0.005797
1942.245282,0.005921
1940.316538,0.006071
1938.387794,0.006228
1936.45905,0.00637
1934.530306,0.006357
1932.601562,0.006304
1930.672817,0.006498
1928.744073,0.00699
1926.815329,0.007576
1924.886585,0.007942
1922.957841,0.007928
1921.029097,0.00785
1919.100353,0.008002
1917.171609,0.00822
1915.242865,0.008246
1913.314121,0.008086
1911.385377,0.008002
1909.456633,0.008089
1907.527889,0.008184
1905.599144,0.008272
1903.6704,0.008395
1901.741656,0.008461
1899.812912,0.008432
1897.884168,0.008462
1895.955424,0.008614
1894.02668,0.008719
1892.097936,0.008846
1890.169192,0.009138
1888.240448,0.009342
1886.311704,0.009302
1884.38296,0.009355
1882.454216,0.009667
1880.525472,0.009878
1878.596727,0.009843
1876.667983,0.009929
1874.739239,0.01027
1872.810495,0.010574
1870.881751,0.010709
1868.953007,0.010769
1867.024263,0.010842
1865.095519,0.011029
1863.166775,0.011339
1861.238031,0.011696
1859.309287,0.011992
1857.380543,0.012089
1855.451799,0.012052
1853.523055,0.012097
1851.59431,0.0123
1849.665566,0.012494
1847.736822,0.012572
1845.808078,0.012744
1843.879334,0.013135
1841.95059,0.01342
1840.021846,0.013327
1838.093102,0.013107
1836.164358,0.012964
1834.235614,0.012774
1832.30687,0.012618
1830.378126,0.012599
1828.449382,0.012542
1826.520637,0.012415
1824.591893,0.012348
1822.663149,0.012284
1820.734405,0.012125
1818.805661,0.011954
1816.876917,0.011931
1814.948173,0.012076
1813.019429,0.012286
1811.090685,0.012492
1809.161941,0.012673
1807.233197,0.012864
1805.304453,0.013097
1803.375709,0.013333
1801.446965,0.01357
1799.51822,0.013905
1797.589476,0.014364
1795.660732,0.014879
1793.731988,0.015542
1791.803244,0.016534
1789.8745,0.017968
1787.945756,0.020075
1786.017012,0.023
1784.088268,0.026394
1782.159524,0.029535
1780.23078,0.031754
1778.302036,0.032807
1776.373292,0.032995
1774.444547,0.032789
1772.515803,0.032327
1770.587059,0.031525
1768.658315,0.030429
1766.729571,0.029183
1764.800827,0.028015
1762.872083,0.027119
1760.943339,0.026523
1759.014595,0.026194
1757.085851,0.026051
1755.157107,0.02604
1753.228363,0.026284
1751.299619,0.026855
1749.370875,0.027604
1747.44213,0.028449
1745.513386,0.029426
1743.584642,0.03052
1741.655898,0.031723
1739.727154,0.03301
1737.79841,0.034298
1735.869666,0.03566
1733.940922,0.037214
1732.012178,0.038803
1730.083434,0.040328
1728.15469,0.041865
1726.225946,0.043406
1724.297202,0.044935
1722.368458,0.046423
1720.439713,0.04789
1718.510969,0.049415
1716.582225,0.050898
1714.653481,0.052212
1712.724737,0.053444
1710.795993,0.0547
1708.867249,0.056022
1706.938505,0.057462
1705.009761,0.059013
1703.081017,0.060701
1701.152273,0.062688
1699.223529,0.064857
1697.294785,0.066893
1695.36604,0.068625
1693.437296,0.069705
1691.508552,0.069975
1689.579808,0.069554
1687.651064,0.068567
1685.72232,0.0672
1683.793576,0.065576
1681.864832,0.063892
1679.936088,0.062413
1678.007344,0.061217
1676.0786,0.060213
1674.149856,0.059349
1672.221112,0.058655
1670.292368,0.058136
1668.363623,0.057739
1666.434879,0.057405
1664.506135,0.057176
1662.577391,0.057048
1660.648647,0.05692
1658.719903,0.056774
1656.791159,0.056666
1654.862415,0.056635
1652.933671,0.056513
1651.004927,0.056056
1649.076183,0.055458
1647.147439,0.054913
1645.218695,0.054296
1643.289951,0.053573
1641.361206,0.052922
1639.432462,0.052428
1637.503718,0.051984
1635.574974,0.051423
1633.64623,0.050726
1631.717486,0.050073
1629.788742,0.049546
1627.859998,0.049037
1625.931254,0.048505
1624.00251,0.048009
1622.073766,0.047515
1620.145022,0.047009
1618.216278,0.046575
1616.287533,0.046206
1614.358789,0.045842
1612.430045,0.045506
1610.501301,0.04522
1608.572557,0.04494
1606.643813,0.044555
1604.715069,0.044001
1602.786325,0.04336
1600.857581,0.04272
1598.928837,0.04212
1597.000093,0.041587
1595.071349,0.041099
1593.142605,0.040632
1591.213861,0.040209
1589.285116,0.039858
1587.356372,0.039573
1585.427628,0.039322
1583.498884,0.039092
1581.57014,0.038866
1579.641396,0.038633
1577.712652,0.038432
1575.783908,0.038264
1573.855164,0.038076
1571.92642,0.037906
1569.997676,0.037789
1568.068932,0.037685
1566.140188,0.037604
1564.211443,0.037579
1562.282699,0.037651
1560.353955,0.037827
1558.425211,0.037923
1556.496467,0.037853
1554.567723,0.037777
1552.638979,0.037725
1550.710235,0.037623
1548.781491,0.037455
1546.852747,0.03728
1544.924003,0.037117
1542.995259,0.036898
1541.066515,0.036565
1539.137771,0.036066
1537.209026,0.035454
1535.280282,0.034914
1533.351538,0.03445
1531.422794,0.033969
1529.49405,0.033523
1527.565306,0.033132
1525.636562,0.032728
1523.707818,0.032371
1521.779074,0.032106
1519.85033,0.031816
1517.921586,0.031461
1515.992842,0.031077
1514.064098,0.030648
1512.135354,0.030184
1510.206609,0.029806
1508.277865,0.029628
1506.349121,0.02955
1504.420377,0.029458
1502.491633,0.02953
1500.562889,0.029898
1498.634145,0.03034
1496.705401,0.030512
1494.776657,0.030345
1492.847913,0.030061
1490.919169,0.029862
1488.990425,0.029821
1487.061681,0.029976
1485.132936,0.030422
1483.204192,0.031299
1481.275448,0.032713
1479.346704,0.034656
1477.41796,0.037023
1475.489216,0.039654
1473.560472,0.042335
1471.631728,0.044799
1469.702984,0.046881
1467.77424,0.048558
1465.845496,0.049816
1463.916752,0.050716
1461.988008,0.051441
1460.059264,0.052083
1458.130519,0.052456
1456.201775,0.052235
1454.273031,0.051561
1452.344287,0.050955
1450.415543,0.050667
1448.486799,0.050581
1446.558055,0.050401
1444.629311,0.04987
1442.700567,0.048922
1440.771823,0.047665
1438.843079,0.046269
1436.914335,0.044867
1434.985591,0.043614
1433.056847,0.042638
1431.128102,0.041903
1429.199358,0.041318
1427.270614,0.040905
1425.34187,0.040754
1423.413126,0.04092
1421.484382,0.041385
1419.555638,0.042004
1417.626894,0.042581
1415.69815,0.043074
1413.769406,0.043528
1411.840662,0.043913
1409.911918,0.044216
1407.983174,0.044469
1406.054429,0.044667
1404.125685,0.044799
1402.196941,0.044919
1400.268197,0.045134
1398.339453,0.04558
1396.410709,0.046447
1394.481965,0.047902
1392.553221,0.049894
1390.624477,0.052094
1388.695733,0.053989
1386.766989,0.055035
1384.838245,0.05497
1382.909501,0.054012
1380.980757,0.052682
1379.052012,0.051393
1377.123268,0.050272
1375.194524,0.049351
1373.26578,0.048718
1371.337036,0.048449
1369.408292,0.048495
1367.479548,0.048705
1365.550804,0.048879
1363.62206,0.048771
1361.693316,0.048193
1359.764572,0.047218
1357.835828,0.046106
1355.907084,0.045064
1353.97834,0.044226
1352.049595,0.04365
1350.120851,0.043262
1348.192107,0.042988
1346.263363,0.042788
1344.334619,0.042595
1342.405875,0.042353
1340.477131,0.042076
1338.548387,0.041842
1336.619643,0.041696
1334.690899,0.041578
1332.762155,0.041408
1330.833411,0.041231
1328.904667,0.041129
1326.975922,0.041075
1325.047178,0.04109
1323.118434,0.041263
1321.18969,0.041586
1319.260946,0.042048
1317.332202,0.04268
1315.403458,0.043378
1313.474714,0.043989
1311.54597,0.04452
1309.617226,0.045048
1307.688482,0.045573
1305.759738,0.046056
1303.830994,0.046511
1301.90225,0.047021
1299.973505,0.047641
1298.044761,0.048292
1296.116017,0.048893
1294.187273,0.049517
1292.258529,0.050288
1290.329785,0.051237
1288.401041,0.052326
1286.472297,0.053519
1284.543553,0.054773
1282.614809,0.056029
1280.686065,0.05723
1278.757321,0.058344
1276.828577,0.059324
1274.899832,0.060087
1272.971088,0.060656
1271.042344,0.06119
1269.1136,0.061771
1267.184856,0.062371
1265.256112,0.062988
1263.327368,0.063674
1261.398624,0.064387
1259.46988,0.064997
1257.541136,0.065512
1255.612392,0.065994
1253.683648,0.066433
1251.754904,0.066869
1249.82616,0.067294
1247.897415,0.067653
1245.968671,0.068021
1244.039927,0.068453
1242.111183,0.068856
1240.182439,0.069168
1238.253695,0.069438
1236.324951,0.069668
1234.396207,0.069759
1232.467463,0.069601
1230.538719,0.069149
1228.609975,0.068498
1226.681231,0.06776
1224.752487,0.066873
1222.823743,0.065715
1220.894998,0.06431
1218.966254,0.06282
1217.03751,0.061446
1215.108766,0.06039
1213.180022,0.059763
1211.251278,0.059459
1209.322534,0.05921
1207.39379,0.058811
1205.465046,0.058277
1203.536302,0.057828
1201.607558,0.057679
1199.678814,0.057858
1197.75007,0.058281
1195.821325,0.05887
1193.892581,0.059576
1191.963837,0.060349
1190.035093,0.061096
1188.106349,0.061708
1186.177605,0.062135
1184.248861,0.062374
1182.320117,0.062451
1180.391373,0.062398
1178.462629,0.06219
1176.533885,0.061836
1174.605141,0.06138
1172.676397,0.060796
1170.747653,0.060146
1168.818908,0.05963
1166.890164,0.059355
1164.96142,0.059289
1163.032676,0.059321
1161.103932,0.059296
1159.175188,0.059221
1157.246444,0.059225
1155.3177,0.059274
1153.388956,0.059259
1151.460212,0.059153
1149.531468,0.058937
1147.602724,0.058564
1145.67398,0.05807
1143.745236,0.057577
1141.816491,0.057155
1139.887747,0.056853
1137.959003,0.056686
1136.030259,0.056555
1134.101515,0.056417
1132.172771,0.056347
1130.244027,0.05628
1128.315283,0.056087
1126.386539,0.055726
1124.457795,0.055204
1122.529051,0.054613
1120.600307,0.054069
1118.671563,0.053708
1116.742818,0.053689
1114.814074,0.053929
1112.88533,0.054188
1110.956586,0.054454
1109.027842,0.054789
1107.099098,0.055071
1105.170354,0.055116
1103.24161,0.054847
1101.312866,0.054461
1099.384122,0.054323
1097.455378,0.054529
1095.526634,0.054994
1093.59789,0.055717
1091.669146,0.056602
1089.740401,0.057425
1087.811657,0.058055
1085.882913,0.058486
1083.954169,0.058699
1082.025425,0.058536
1080.096681,0.057876
1078.167937,0.056859
1076.239193,0.05572
1074.310449,0.054557
1072.381705,0.053414
1070.452961,0.05244
1068.524217,0.051804
1066.595473,0.0515
1064.666728,0.051381
1062.737984,0.051316
1060.80924,0.05131
1058.880496,0.051465
1056.951752,0.051789
1055.023008,0.052214
1053.094264,0.052756
1051.16552,0.053402
1049.236776,0.054023
1047.308032,0.054541
1045.379288,0.055002
1043.450544,0.055402
1041.5218,0.055679
1039.593056,0.055877
1037.664311,0.056102
1035.735567,0.056319
1033.806823,0.056383
1031.878079,0.05629
1029.949335,0.056163
1028.020591,0.056054
1026.091847,0.056001
1024.163103,0.056094
1022.234359,0.056323
1020.305615,0.056474
1018.376871,0.056307
1016.448127,0.055768
1014.519383,0.054918
1012.590639,0.053902
1010.661894,0.053048
1008.73315,0.052638
1006.804406,0.05264
1004.875662,0.05281
1002.946918,0.052834
1001.018174,0.052493
999.08943,0.051836
997.160686,0.051017
995.231942,0.050173
993.303198,0.049508
991.374454,0.049123
989.44571,0.048962
987.516966,0.048978
985.588221,0.049109
983.659477,0.04926
981.730733,0.049397
979.801989,0.049528
977.873245,0.049634
975.944501,0.049716
974.015757,0.049842
972.087013,0.050093
970.158269,0.050462
968.229525,0.050773
966.300781,0.050886
964.372037,0.050936
962.443293,0.051087
960.514549,0.05134
958.585804,0.051757
956.65706,0.052559
954.728316,0.053892
952.799572,0.05578
950.870828,0.058099
948.942084,0.060166
947.01334,0.060928
945.084596,0.059927
943.155852,0.05775
941.227108,0.055503
939.298364,0.053911
937.36962,0.053083
935.440876,0.052901
933.512132,0.05321
931.583387,0.053899
929.654643,0.054959
927.725899,0.056259
925.797155,0.057434
923.868411,0.058163
921.939667,0.058246
920.010923,0.057511
918.082179,0.056064
916.153435,0.05437
914.224691,0.052925
912.295947,0.05204
910.367203,0.051938
908.438459,0.052582
906.509714,0.053245
904.58097,0.053114
902.652226,0.052321
900.723482,0.051466
898.794738,0.050647
896.865994,0.049724
894.93725,0.048828
893.008506,0.048155
891.079762,0.047768
889.151018,0.047615
887.222274,0.047478
885.29353,0.047251
883.364786,0.04716
881.436042,0.047259
879.507297,0.047263
877.578553,0.047117
875.649809,0.046898
873.721065,0.046461
871.792321,0.045874
869.863577,0.045502
867.934833,0.045461
866.006089,0.04551
864.077345,0.045456
862.148601,0.04547
860.219857,0.045849
858.291113,0.046599
856.362369,0.04742
854.433625,0.047858
852.50488,0.047566
850.576136,0.046649
848.647392,0.045595
846.718648,0.044842
844.789904,0.044513
842.86116,0.044466
840.932416,0.044578
839.003672,0.044941
837.074928,0.045585
835.146184,0.046318
833.21744,0.047008
831.288696,0.047655
829.359952,0.048222
827.431207,0.048606
825.502463,0.04866
823.573719,0.048286
821.644975,0.047583
819.716231,0.046866
817.787487,0.046399
815.858743,0.046175
813.929999,0.046078
812.001255,0.04595
810.072511,0.045618
808.143767,0.04515
806.215023,0.044728
804.286279,0.044421
802.357535,0.044242
800.42879,0.044115
798.500046,0.044048
796.571302,0.044164
794.642558,0.044239
792.713814,0.043941
790.78507,0.043439
788.856326,0.043041
786.927582,0.042739
784.998838,0.042472
783.070094,0.042281
781.14135,0.042167
779.212606,0.042091
777.283862,0.042015
775.355117,0.041984
773.426373,0.04215
771.497629,0.042485
769.568885,0.042784
767.640141,0.042923
765.711397,0.042888
763.782653,0.042815
761.853909,0.042844
759.925165,0.042889
757.996421,0.042915
756.067677,0.04304
754.138933,0.043197
752.210189,0.043243
750.281445,0.043356
748.3527,0.043739
746.423956,0.044261
744.495212,0.044755
742.566468,0.045127
740.637724,0.045252
738.70898,0.04508
736.780236,0.044776
734.851492,0.044697
732.922748,0.044885
730.994004,0.045
729.06526,0.045046
727.136516,0.045385
725.207772,0.046084
723.279028,0.046789
721.350283,0.047214
719.421539,0.047403
717.492795,0.047552
715.564051,0.047815
713.635307,0.04816
711.706563,0.048516
709.777819,0.048883
707.849075,0.049198
705.920331,0.049416
703.991587,0.049605
702.062843,0.049888
700.134099,0.05033
698.205355,0.050842
696.27661,0.051191
694.347866,0.051156
692.419122,0.050815
690.490378,0.050433
688.561634,0.050148
686.63289,0.049997
684.704146,0.050058
682.775402,0.050413
680.846658,0.051032
678.917914,0.051739
676.98917,0.052415
675.060426,0.053109
673.131682,0.053774
671.202938,0.054231
669.274193,0.054353
667.345449,0.054029
665.416705,0.053427
663.487961,0.053058
661.559217,0.053189
659.630473,0.053585
657.701729,0.05394
655.772985,0.05424
653.844241,0.05446
651.915497,0.05454
649.986753,0.054652
648.058009,0.054779
646.129265,0.054702
644.200521,0.054471
642.271776,0.054224
640.343032,0.053949
638.414288,0.053663
636.485544,0.053572
634.5568,0.053755
632.628056,0.054037
630.699312,0.054377
628.770568,0.054671
626.841824,0.054528
624.91308,0.053937
622.984336,0.053496
621.055592,0.053471
619.126848,0.053412
617.198103,0.053146
615.269359,0.053159
613.340615,0.05368
611.411871,0.054195
609.483127,0.054246
607.554383,0.053994
605.625639,0.05378
603.696895,0.053844
601.768151,0.05401
599.839407,0.053881
597.910663,0.053676
595.981919,0.053713
594.053175,0.053906
592.124431,0.054165
590.195686,0.054366
588.266942,0.054527
586.338198,0.054918
584.409454,0.055548
582.48071,0.056126
580.551966,0.056485
578.623222,0.056574
576.694478,0.0565
574.765734,0.056641
572.83699,0.057062
570.908246,0.057397
568.979502,0.057595
567.050758,0.057843
565.122013,0.057931
563.193269,0.057551
561.264525,0.057029
559.335781,0.056985
557.407037,0.05731
555.478293,0.0575
553.549549,0.057488
551.620805,0.057286
549.692061,0.05691
547.763317,0.056734
545.834573,0.057068
543.905829,0.057611
541.977085,0.057755
540.048341,0.05755
538.119596,0.057605
536.190852,0.057971
534.262108,0.058142
532.333364,0.057821
530.40462,0.057215
528.475876,0.056734
526.547132,0.056492
524.618388,0.056394
522.689644,0.056301
520.7609,0.056041
518.832156,0.055734
516.903412,0.055651
514.974668,0.055676
513.045924,0.055373
511.117179,0.054593
509.188435,0.053783
507.259691,0.053434
505.330947,0.053471
503.402203,0.053512
501.473459,0.053418
499.544715,0.053198
497.615971,0.052927
495.687227,0.05305
493.758483,0.053631
491.829739,0.053965
489.900995,0.053947
487.972251,0.053969
486.043506,0.053716
484.114762,0.053141
482.186018,0.053085
480.257274,0.053557
478.32853,0.053581
476.399786,0.053069
474.471042,0.052649
472.542298,0.052601
470.613554,0.052943
468.68481,0.053326
466.756066,0.053435
464.827322,0.053387
462.898578,0.053408
460.969834,0.053713
459.041089,0.054173
457.112345,0.054519
455.183601,0.054771
453.254857,0.054785
451.326113,0.054159
449.397369,0.052819
447.468625,0.051598
445.539881,0.051516
443.611137,0.052232
441.682393,0.052419
439.753649,0.05207
437.824905,0.052108
435.896161,0.052204
433.967417,0.052338
432.038672,0.053169
430.109928,0.053605
428.181184,0.052739
426.25244,0.051657
424.323696,0.050857
422.394952,0.050187
420.466208,0.050716
418.537464,0.052471
416.60872,0.053505
414.679976,0.053128
412.751232,0.051975
410.822488,0.050702
408.893744,0.049598
406.964999,0.048079
405.036255,0.046705
403.107511,0.047688
401.178767,0.050046
399.250023,0.050584
