3996.35772,0.087701
3994.428976,0.08777
3992.500232,0.087707
3990.571488,0.087632
3988.642744,0.087469
3986.714,0.087313
3984.785256,0.087455
3982.856511,0.087759
3980.927767,0.087827
3978.999023,0.087731
3977.070279,0.087753
3975.141535,0.087827
3973.212791,0.087838
3971.284047,0.08792
3969.355303,0.088077
3967.426559,0.088075
3965.497815,0.08791
3963.569071,0.08785
3961.640327,0.087975
3959.711583,0.088076
3957.782839,0.088039
3955.854094,0.08801
3953.92535,0.088057
3951.996606,0.088078
3950.067862,0.088008
3948.139118,0.087868
3946.210374,0.08772
3944.28163,0.087708
3942.352886,0.087895
3940.424142,0.088077
3938.495398,0.088084
3936.566654,0.088
3934.63791,0.087947
3932.709166,0.087968
3930.780422,0.088058
3928.851677,0.088151
3926.922933,0.088169
3924.994189,0.088044
3923.065445,0.087801
3921.136701,0.087725
3919.207957,0.087932
3917.279213,0.088113
3915.350469,0.088158
3913.421725,0.088103
3911.492981,0.087876
3909.564237,0.08759
3907.635493,0.087403
3905.706749,0.087391
3903.778004,0.087602
3901.84926,0.087965
3899.920516,0.088271
3897.991772,0.088276
3896.063028,0.088057
3894.134284,0.087988
3892.20554,0.088164
3890.276796,0.088376
3888.348052,0.088555
3886.419308,0.088674
3884.490564,0.088525
3882.56182,0.088142
3880.633076,0.087858
3878.704332,0.087862
3876.775587,0.08804
3874.846843,0.08819
3872.918099,0.088345
3870.989355,0.088564
3869.060611,0.088619
3867.131867,0.088417
3865.203123,0.08816
3863.274379,0.087947
3861.345635,0.087761
3859.416891,0.08772
3857.488147,0.087941
3855.559403,0.088325
3853.630659,0.088546
3851.701915,0.088379
3849.77317,0.088044
3847.844426,0.087822
3845.915682,0.087826
3843.986938,0.088013
3842.058194,0.088204
3840.12945,0.088287
3838.200706,0.088247
3836.271962,0.088169
3834.343218,0.088106
3832.414474,0.087966
3830.48573,0.087802
3828.556986,0.087766
3826.628242,0.087857
3824.699497,0.087993
3822.770753,0.088143
3820.842009,0.088261
3818.913265,0.088227
3816.984521,0.08804
3815.055777,0.087896
3813.127033,0.087927
3811.198289,0.088023
3809.269545,0.088036
3807.340801,0.087987
3805.412057,0.088054
3803.483313,0.088216
3801.554569,0.088248
3799.625825,0.088221
3797.69708,0.088247
3795.768336,0.088162
3793.839592,0.08795
3791.910848,0.087758
3789.982104,0.087635
3788.05336,0.087637
3786.124616,0.08777
3784.195872,0.087847
3782.267128,0.087785
3780.338384,0.087702
3778.40964,0.087712
3776.480896,0.087846
3774.552152,0.087924
3772.623408,0.087799
3770.694663,0.08766
3768.765919,0.087698
3766.837175,0.087769
3764.908431,0.087704
3762.979687,0.087611
3761.050943,0.087539
3759.122199,0.087406
3757.193455,0.087325
3755.264711,0.087386
3753.335967,0.087501
3751.407223,0.087597
3749.478479,0.087672
3747.549735,0.087776
3745.62099,0.087865
3743.692246,0.087777
3741.763502,0.08753
3739.834758,0.087292
3737.906014,0.087131
3735.97727,0.087119
3734.048526,0.087277
3732.119782,0.087301
3730.191038,0.087103
3728.262294,0.087143
3726.33355,0.087436
3724.404806,0.087518
3722.476062,0.087381
3720.547318,0.087198
3718.618573,0.086996
3716.689829,0.086925
3714.761085,0.087061
3712.832341,0.08725
3710.903597,0.087346
3708.974853,0.08733
3707.046109,0.087274
3705.117365,0.087206
3703.188621,0.087059
3701.259877,0.086961
3699.331133,0.087162
3697.402389,0.087532
3695.473645,0.087714
3693.5449,0.087627
3691.616156,0.087468
3689.687412,0.087361
3687.758668,0.087239
3685.829924,0.087063
3683.90118,0.087
3681.972436,0.087105
3680.043692,0.08714
3678.114948,0.087071
3676.186204,0.087071
3674.25746,0.08714
3672.328716,0.087242
3670.399972,0.087342
3668.471228,0.087465
3666.542483,0.087712
3664.613739,0.087832
3662.684995,0.087573
3660.756251,0.087273
3658.827507,0.087157
3656.898763,0.08709
3654.970019,0.08729
3653.041275,0.087794
3651.112531,0.088189
3649.183787,0.088356
3647.255043,0.088419
3645.326299,0.088461
3643.397555,0.08856
3641.468811,0.088635
3639.540066,0.088497
3637.611322,0.088308
3635.682578,0.088531
3633.753834,0.089089
3631.82509,0.089411
3629.896346,0.089304
3627.967602,0.089021
3626.038858,0.088857
3624.110114,0.088913
3622.18137,0.089077
3620.252626,0.089269
3618.323882,0.089567
3616.395138,0.089958
3614.466393,0.09024
3612.537649,0.090388
3610.608905,0.090569
3608.680161,0.090709
3606.751417,0.090616
3604.822673,0.090437
3602.893929,0.09052
3600.965185,0.090898
3599.036441,0.091222
3597.107697,0.091289
3595.178953,0.091291
3593.250209,0.091368
3591.321465,0.091416
3589.392721,0.091521
3587.463976,0.091829
3585.535232,0.092041
3583.606488,0.091908
3581.677744,0.091692
3579.749,0.091639
3577.820256,0.091764
3575.891512,0.09206
3573.962768,0.092396
3572.034024,0.092591
3570.10528,0.092717
3568.176536,0.092905
3566.247792,0.093083
3564.319048,0.093225
3562.390304,0.093358
3560.461559,0.093381
3558.532815,0.093369
3556.604071,0.093491
3554.675327,0.093659
3552.746583,0.093823
3550.817839,0.09403
3548.889095,0.094146
3546.960351,0.094224
3545.031607,0.09449
3543.102863,0.094771
3541.174119,0.094813
3539.245375,0.094764
3537.316631,0.094851
3535.387886,0.095109
3533.459142,0.095391
3531.530398,0.09551
3529.601654,0.095489
3527.67291,0.095491
3525.744166,0.095569
3523.815422,0.095743
3521.886678,0.096047
3519.957934,0.096286
3518.02919,0.096277
3516.100446,0.096202
3514.171702,0.096214
3512.242958,0.096321
3510.314214,0.096597
3508.385469,0.096953
3506.456725,0.097211
3504.527981,0.097382
3502.599237,0.097473
3500.670493,0.097486
3498.741749,0.097536
3496.813005,0.097663
3494.884261,0.097854
3492.955517,0.098142
3491.026773,0.09852
3489.098029,0.098859
3487.169285,0.098954
3485.240541,0.098817
3483.311796,0.098695
3481.383052,0.0987
3479.454308,0.098809
3477.525564,0.099018
3475.59682,0.099283
3473.668076,0.099572
3471.739332,0.099815
3469.810588,0.099904
3467.881844,0.099935
3465.9531,0.100091
3464.024356,0.100341
3462.095612,0.100481
3460.166868,0.100413
3458.238124,0.100295
3456.309379,0.100286
3454.380635,0.10041
3452.451891,0.100669
3450.523147,0.100983
3448.594403,0.101168
3446.665659,0.101238
3444.736915,0.101418
3442.808171,0.101628
3440.879427,0.101615
3438.950683,0.10153
3437.021939,0.10159
3435.093195,0.101665
3433.164451,0.101685
3431.235707,0.101793
3429.306962,0.102011
3427.378218,0.102297
3425.449474,0.102598
3423.52073,0.102744
3421.591986,0.102727
3419.663242,0.102761
3417.734498,0.102926
3415.805754,0.103079
3413.87701,0.103095
3411.948266,0.103055
3410.019522,0.103048
3408.090778,0.103089
3406.162034,0.103293
3404.233289,0.103658
3402.304545,0.103919
3400.375801,0.104069
3398.447057,0.104341
3396.518313,0.104574
3394.589569,0.104556
3392.660825,0.104514
3390.732081,0.104649
3388.803337,0.104824
3386.874593,0.104885
3384.945849,0.104881
3383.017105,0.1049
3381.088361,0.104875
3379.159617,0.104695
3377.230872,0.10449
3375.302128,0.104528
3373.373384,0.104661
3371.44464,0.104587
3369.515896,0.104549
3367.587152,0.10476
3365.658408,0.1049
3363.729664,0.104843
3361.80092,0.104812
3359.872176,0.104798
3357.943432,0.104747
3356.014688,0.104761
3354.085944,0.104769
3352.1572,0.104649
3350.228455,0.104555
3348.299711,0.104718
3346.370967,0.105015
3344.442223,0.105086
3342.513479,0.104896
3340.584735,0.104796
3338.655991,0.104966
3336.727247,0.105184
3334.798503,0.105294
3332.869759,0.105326
3330.941015,0.105236
3329.012271,0.105152
3327.083527,0.105286
3325.154782,0.10544100000000001
3323.226038,0.105341
3321.297294,0.10509
3319.36855,0.104885
3317.439806,0.104847
3315.511062,0.104985
3313.582318,0.105132
3311.653574,0.10517
3309.72483,0.10514
3307.796086,0.10509
3305.867342,0.105047
3303.938598,0.105116
3302.009854,0.105297
3300.08111,0.105429
3298.152365,0.105499
3296.223621,0.105506
3294.294877,0.105358
3292.366133,0.105214
3290.437389,0.105243
3288.508645,0.105273
3286.579901,0.105198
3284.651157,0.105181
3282.722413,0.105242
3280.793669,0.105212
3278.864925,0.105106
3276.936181,0.105007
3275.007437,0.104822
3273.078692,0.104542
3271.149948,0.104321
3269.221204,0.104223
3267.29246,0.104212
3265.363716,0.104239
3263.434972,0.104257
3261.506228,0.104241
3259.577484,0.104177
3257.64874,0.104022
3255.719996,0.103693
3253.791252,0.103319
3251.862508,0.103197
3249.933764,0.103273
3248.00502,0.10328
3246.076275,0.103153
3244.147531,0.10296
3242.218787,0.102865
3240.290043,0.102975
3238.361299,0.103166
3236.432555,0.103259
3234.503811,0.103199
3232.575067,0.102988
3230.646323,0.10269
3228.717579,0.102499
3226.788835,0.102492
3224.860091,0.102567
3222.931347,0.102695
3221.002603,0.102847
3219.073858,0.102834
3217.145114,0.10262
3215.21637,0.102442
3213.287626,0.102452
3211.358882,0.102663
3209.430138,0.102888
3207.501394,0.102737
3205.57265,0.102273
3203.643906,0.101908
3201.715162,0.101747
3199.786418,0.101663
3197.857674,0.101521
3195.92893,0.101414
3194.000185,0.101521
3192.071441,0.101691
3190.142697,0.101729
3188.213953,0.101689
3186.285209,0.101546
3184.356465,0.101176
3182.427721,0.100716
3180.498977,0.100403
3178.570233,0.10026
3176.641489,0.100189
3174.712745,0.100038
3172.784001,0.099798
3170.855257,0.099673
3168.926513,0.099672
3166.997768,0.099612
3165.069024,0.099427
3163.14028,0.09918
3161.211536,0.098978
3159.282792,0.098853
3157.354048,0.098716
3155.425304,0.098464
3153.49656,0.098154
3151.567816,0.097983
3149.639072,0.097952
3147.710328,0.097866
3145.781584,0.097704
3143.85284,0.097521
3141.924096,0.097267
3139.995351,0.09703
3138.066607,0.09699
3136.137863,0.097055
3134.209119,0.096936
3132.280375,0.09663
3130.351631,0.096386
3128.422887,0.096263
3126.494143,0.096223
3124.565399,0.096194
3122.636655,0.096018
3120.707911,0.095802
3118.779167,0.095749
3116.850423,0.0957
3114.921678,0.095458
3112.992934,0.095187
3111.06419,0.095071
3109.135446,0.095023
3107.206702,0.094953
3105.277958,0.094918
3103.349214,0.09493
3101.42047,0.09485
3099.491726,0.094598
3097.562982,0.09436
3095.634238,0.094294
3093.705494,0.094294
3091.77675,0.094267
3089.848006,0.094236
3087.919261,0.094192
3085.990517,0.09412
3084.061773,0.094013
3082.133029,0.09389
3080.204285,0.093785
3078.275541,0.093703
3076.346797,0.09367
3074.418053,0.093638
3072.489309,0.093528
3070.560565,0.093387
3068.631821,0.093247
3066.703077,0.093045
3064.774333,0.092832
3062.845589,0.092726
3060.916844,0.092623
3058.9881,0.092412
3057.059356,0.092212
3055.130612,0.092108
3053.201868,0.09202
3051.273124,0.091868
3049.34438,0.091698
3047.415636,0.091592
3045.486892,0.091473
3043.558148,0.091212
3041.629404,0.090887
3039.70066,0.090645
3037.771916,0.090488
3035.843171,0.090408
3033.914427,0.090337
3031.985683,0.090173
3030.056939,0.089969
3028.128195,0.089752
3026.199451,0.089562
3024.270707,0.089462
3022.341963,0.08933
3020.413219,0.089072
3018.484475,0.088769
3016.555731,0.088504
3014.626987,0.088282
3012.698243,0.088042
3010.769499,0.087777
3008.840754,0.087541
3006.91201,0.087302
3004.983266,0.086961
3003.054522,0.086548
3001.125778,0.086268
2999.197034,0.086214
2997.26829,0.086116
2995.339546,0.085777
2993.410802,0.085401
2991.482058,0.085213
2989.553314,0.085174
2987.62457,0.08511
2985.695826,0.084998
2983.767081,0.08501
2981.838337,0.085224
2979.909593,0.085539
2977.980849,0.08588
2976.052105,0.086292
2974.123361,0.086955
2972.194617,0.088117
2970.265873,0.08981
2968.337129,0.091737
2966.408385,0.093634
2964.479641,0.095468
2962.550897,0.097205
2960.622153,0.098636
2958.693409,0.09952
2956.764664,0.099851
2954.83592,0.09977
2952.907176,0.099452
2950.978432,0.099304
2949.049688,0.099801
2947.120944,0.10128
2945.1922,0.104079
2943.263456,0.108531
2941.334712,0.114799
2939.405968,0.122879
2937.477224,0.132804
2935.54848,0.144663
2933.619736,0.158534
2931.690992,0.174627
2929.762247,0.193351
2927.833503,0.215208
2925.904759,0.240765
2923.976015,0.270714
2922.047271,0.305382
2920.118527,0.343538
2918.189783,0.380715
2916.261039,0.408323
2914.332295,0.417664
2912.403551,0.407654
2910.474807,0.38601
2908.546063,0.36176
2906.617319,0.339823
2904.688574,0.321526
2902.75983,0.306619
2900.831086,0.294354
2898.902342,0.283971
2896.973598,0.274829
2895.044854,0.26624
2893.11611,0.257567
2891.187366,0.24859
2889.258622,0.239491
2887.329878,0.230458
2885.401134,0.221492
2883.47239,0.212647
2881.543646,0.204102
2879.614902,0.195976
2877.686157,0.188438
2875.757413,0.181778
2873.828669,0.176112
2871.899925,0.171293
2869.971181,0.167229
2868.042437,0.164118
2866.113693,0.16247
2864.184949,0.163205
2862.256205,0.167575
2860.327461,0.176886
2858.398717,0.192444
2856.469973,0.215789
2854.541229,0.249003
2852.612485,0.293535
2850.68374,0.345052
2848.754996,0.38722
2846.826252,0.399397
2844.897508,0.379137
2842.968764,0.343106
2841.04002,0.306722
2839.111276,0.276393
2837.182532,0.252929
2835.253788,0.235078
2833.325044,0.221313
2831.3963,0.210396
2829.467556,0.20156
2827.538812,0.194413
2825.610067,0.188568
2823.681323,0.183567
2821.752579,0.17914
2819.823835,0.175328
2817.895091,0.172078
2815.966347,0.169059
2814.037603,0.166204
2812.108859,0.163696
2810.180115,0.161529
2808.251371,0.159573
2806.322627,0.157716
2804.393883,0.155943
2802.465139,0.154297
2800.536395,0.152772
2798.60765,0.151341
2796.678906,0.149977
2794.750162,0.14867
2792.821418,0.147467
2790.892674,0.146397
2788.96393,0.145365
2787.035186,0.144275
2785.106442,0.143188
2783.177698,0.142214
2781.248954,0.141361
2779.32021,0.140519
2777.391466,0.1396
2775.462722,0.138701
2773.533977,0.137957
2771.605233,0.137314
2769.676489,0.136691
2767.747745,0.136112
2765.819001,0.135528
2763.890257,0.134885
2761.961513,0.13428
2760.032769,0.133748
2758.104025,0.133237
2756.175281,0.132811
2754.246537,0.1325
2752.317793,0.132161
2750.389049,0.131717
2748.460305,0.13131
2746.53156,0.131061
2744.602816,0.130848
2742.674072,0.130523
2740.745328,0.130213
2738.816584,0.13007
2736.88784,0.129986
2734.959096,0.12981
2733.030352,0.129535
2731.101608,0.12921
2729.172864,0.128828
2727.24412,0.128393
2725.315376,0.127971
2723.386632,0.12764
2721.457888,0.127462
2719.529143,0.127363
2717.600399,0.127199
2715.671655,0.126957
2713.742911,0.126685
2711.814167,0.126406
2709.885423,0.126153
2707.956679,0.125955
2706.027935,0.125759
2704.099191,0.125459
2702.170447,0.125121
2700.241703,0.1249
2698.312959,0.124782
2696.384215,0.124699
2694.45547,0.124635
2692.526726,0.124574
2690.597982,0.124492
2688.669238,0.124343
2686.740494,0.124205
2684.81175,0.124152
2682.883006,0.124063
2680.954262,0.123942
2679.025518,0.12393
2677.096774,0.123971
2675.16803,0.123937
2673.239286,0.123852
2671.310542,0.123782
2669.381798,0.123695
2667.453053,0.123557
2665.524309,0.123379
2663.595565,0.123198
2661.666821,0.123066
2659.738077,0.122896
2657.809333,0.12255
2655.880589,0.122069
2653.951845,0.121592
2652.023101,0.121183
2650.094357,0.120799
2648.165613,0.120367
2646.236869,0.119877
2644.308125,0.119348
2642.379381,0.11884
2640.450636,0.118464
2638.521892,0.118164
2636.593148,0.117782
2634.664404,0.11735
2632.73566,0.116895
2630.806916,0.116325
2628.878172,0.115741
2626.949428,0.115226
2625.020684,0.114696
2623.09194,0.114214
2621.163196,0.113814
2619.234452,0.113365
2617.305708,0.112915
2615.376963,0.11254
2613.448219,0.112072
2611.519475,0.111448
2609.590731,0.110912
2607.661987,0.110678
2605.733243,0.110574
2603.804499,0.110328
2601.875755,0.11003
2599.947011,0.109745
2598.018267,0.109305
2596.089523,0.108859
2594.160779,0.10854
2592.232035,0.10815
2590.303291,0.107708
2588.374546,0.107302
2586.445802,0.106863
2584.517058,0.106409
2582.588314,0.106011
2580.65957,0.105762
2578.730826,0.105641
2576.802082,0.105463
2574.873338,0.105201
2572.944594,0.104916
2571.01585,0.104565
2569.087106,0.104165
2567.158362,0.103775
2565.229618,0.103409
2563.300874,0.103195
2561.372129,0.103246
2559.443385,0.103326
2557.514641,0.103138
2555.585897,0.102742
2553.657153,0.102343
2551.728409,0.102044
2549.799665,0.101855
2547.870921,0.101732
2545.942177,0.101646
2544.013433,0.101556
2542.084689,0.101442
2540.155945,0.101356
2538.227201,0.101319
2536.298456,0.101378
2534.369712,0.101507
2532.440968,0.101513
2530.512224,0.10133
2528.58348,0.101112
2526.654736,0.100997
2524.725992,0.100887
2522.797248,0.100702
2520.868504,0.100589
2518.93976,0.10056
2517.011016,0.100577
2515.082272,0.100655
2513.153528,0.100706
2511.224784,0.100775
2509.296039,0.100872
2507.367295,0.100796
2505.438551,0.100549
2503.509807,0.100314
2501.581063,0.100143
2499.652319,0.099986
2497.723575,0.099849
2495.794831,0.099776
2493.866087,0.099707
2491.937343,0.099549
2490.008599,0.099407
2488.079855,0.099364
2486.151111,0.099353
2484.222366,0.099423
2482.293622,0.099563
2480.364878,0.09958
2478.436134,0.099518
2476.50739,0.099534
2474.578646,0.099548
2472.649902,0.099445
2470.721158,0.099302
2468.792414,0.099287
2466.86367,0.099409
2464.934926,0.099395
2463.006182,0.099071
2461.077438,0.09877
2459.148694,0.098828
2457.219949,0.099027
2455.291205,0.099075
2453.362461,0.099008
2451.433717,0.098852
2449.504973,0.098587
2447.576229,0.098355
2445.647485,0.098218
2443.718741,0.09812
2441.789997,0.098122
2439.861253,0.098173
2437.932509,0.098071
2436.003765,0.09792
2434.075021,0.098004
2432.146277,0.098235
2430.217532,0.098344
2428.288788,0.09827
2426.360044,0.098141
2424.4313,0.098255
2422.502556,0.098703
2420.573812,0.099066
2418.645068,0.099038
2416.716324,0.098868
2414.78758,0.098915
2412.858836,0.099216
2410.930092,0.09959
2409.001348,0.099846
2407.072604,0.099953
2405.143859,0.100009
2403.215115,0.100099
2401.286371,0.100257
2399.357627,0.10043
2397.428883,0.100657
2395.500139,0.101063
2393.571395,0.101485
2391.642651,0.101673
2389.713907,0.101764
2387.785163,0.102029
2385.856419,0.102391
2383.927675,0.102655
2381.998931,0.102906
2380.070187,0.103287
2378.141442,0.103703
2376.212698,0.104025
2374.283954,0.104349
2372.35521,0.104774
2370.426466,0.105267
2368.497722,0.105819
2366.568978,0.106385
2364.640234,0.106822
2362.71149,0.107114
2360.782746,0.107371
2358.854002,0.107563
2356.925258,0.107584
2354.996514,0.107535
2353.06777,0.107563
2351.139025,0.107579
2349.210281,0.107523
2347.281537,0.107534
2345.352793,0.107714
2343.424049,0.108021
2341.495305,0.108321
2339.566561,0.108524
2337.637817,0.108673
2335.709073,0.108747
2333.780329,0.108696
2331.851585,0.108611
2329.922841,0.108555
2327.994097,0.108495
2326.065352,0.108296
2324.136608,0.107634
2322.207864,0.106355
2320.27912,0.104853
2318.350376,0.103636
2316.421632,0.102715
2314.492888,0.101846
2312.564144,0.101078
2310.6354,0.100533
2308.706656,0.100048
2306.777912,0.099396
2304.849168,0.09851
2302.920424,0.097576
2300.99168,0.096848
2299.062935,0.09625
2297.134191,0.09559
2295.205447,0.094885
2293.276703,0.094106
2291.347959,0.09313
2289.419215,0.092051
2287.490471,0.090903
2285.561727,0.089454
2283.632983,0.087748
2281.704239,0.086147
2279.775495,0.084825
2277.846751,0.083757
2275.918007,0.082706
2273.989262,0.081516
2272.060518,0.080581
2270.131774,0.079835
2268.20303,0.078624
2266.274286,0.077222
2264.345542,0.076285
2262.416798,0.075728
2260.488054,0.075244
2258.55931,0.074652
2256.630566,0.07382
2254.701822,0.0729
2252.773078,0.072155
2250.844334,0.071471
2248.91559,0.070706
2246.986845,0.069985
2245.058101,0.069302
2243.129357,0.068493
2241.200613,0.067572
2239.271869,0.066847
2237.343125,0.066418
2235.414381,0.065998
2233.485637,0.065252
2231.556893,0.063971
2229.628149,0.06263
2227.699405,0.061827
2225.770661,0.061239
2223.841917,0.060511
2221.913173,0.05975
2219.984428,0.059
2218.055684,0.058479
2216.12694,0.058257
2214.198196,0.057793
2212.269452,0.056971
2210.340708,0.056257
2208.411964,0.055585
2206.48322,0.054816
2204.554476,0.054211
2202.625732,0.053774
2200.696988,0.053283
2198.768244,0.052472
2196.8395,0.051338
2194.910755,0.050501
2192.982011,0.049992
2191.053267,0.048964
2189.124523,0.047463
2187.195779,0.046263
2185.267035,0.045321
2183.338291,0.044442
2181.409547,0.043963
2179.480803,0.043645
2177.552059,0.042951
2175.623315,0.042145
2173.694571,0.041496
2171.765827,0.040818
2169.837083,0.04002
2167.908338,0.038893
2165.979594,0.037213
2164.05085,0.035013
2162.122106,0.032517
2160.193362,0.030865
2158.264618,0.031406
2156.335874,0.033693
2154.40713,0.036377
2152.478386,0.039116
2150.549642,0.04191
2148.620898,0.043908
2146.692154,0.04489
2144.76341,0.04616
2142.834666,0.048171
2140.905921,0.050369
2138.977177,0.052525
2137.048433,0.05449
2135.119689,0.056421
2133.190945,0.058685
2131.262201,0.061244
2129.333457,0.063642
2127.404713,0.065636
2125.475969,0.067461
2123.547225,0.068975
2121.618481,0.069777
2119.689737,0.070041
2117.760993,0.070228
2115.832248,0.070465
2113.903504,0.070427
2111.97476,0.06988
2110.046016,0.069136
2108.117272,0.068667
2106.188528,0.068413
2104.259784,0.068124
2102.33104,0.068015
2100.402296,0.068054
2098.473552,0.067769
2096.544808,0.067339
2094.616064,0.067349
2092.68732,0.067729
2090.758576,0.06799
2088.829831,0.067986
2086.901087,0.067793
2084.972343,0.067346
2083.043599,0.066775
2081.114855,0.06628
2079.186111,0.065527
2077.257367,0.064279
2075.328623,0.062908
2073.399879,0.061729
2071.471135,0.060674
2069.542391,0.059647
2067.613647,0.058718
2065.684903,0.057886
2063.756158,0.056968
2061.827414,0.055844
2059.89867,0.054791
2057.969926,0.054082
2056.041182,0.053389
2054.112438,0.052401
2052.183694,0.050929
2050.25495,0.048548
2048.326206,0.045429
2046.397462,0.042602
2044.468718,0.040864
2042.539974,0.040097
2040.61123,0.039419
2038.682486,0.038122
2036.753741,0.036477
2034.824997,0.034985
2032.896253,0.033774
2030.967509,0.033091
2029.038765,0.032988
2027.110021,0.033146
2025.181277,0.033304
2023.252533,0.033328
2021.323789,0.033346
2019.395045,0.033729
2017.466301,0.034556
2015.537557,0.035284
2013.608813,0.035507
2011.680069,0.035472
2009.751324,0.035694
2007.82258,0.036636
2005.893836,0.03821
2003.965092,0.039733
2002.036348,0.040931
2000.107604,0.04178
1998.17886,0.041915
1996.250116,0.041536
1994.321372,0.041199
1992.392628,0.040956
1990.463884,0.040933
1988.53514,0.041274
1986.606396,0.041523
1984.677651,0.040781
1982.748907,0.038933
1980.820163,0.036908
1978.891419,0.03537
1976.962675,0.034735
1975.033931,0.034935
1973.105187,0.035294
1971.176443,0.035853
1969.247699,0.036907
1967.318955,0.03821
1965.390211,0.039481
1963.461467,0.040635
1961.532723,0.042016
1959.603979,0.044075
1957.675234,0.04629
1955.74649,0.048093
1953.817746,0.049749
1951.889002,0.051264
1949.960258,0.052624
1948.031514,0.053984
1946.10277,0.055131
1944.174026,0.056147
1942.245282,0.057322
1940.316538,0.058675
1938.387794,0.06023
1936.45905,0.061812
1934.530306,0.063096
1932.601562,0.064164
1930.672817,0.065351
1928.744073,0.066746
1926.815329,0.06816
1924.886585,0.069442
1922.957841,0.070489
1921.029097,0.071296
1919.100353,0.07212
1917.171609,0.072972
1915.242865,0.073559
1913.314121,0.07404
1911.385377,0.074754
1909.456633,0.075501
1907.527889,0.076032
1905.599144,0.076609
1903.6704,0.07742
1901.741656,0.078204
1899.812912,0.078718
1897.884168,0.07908
1895.955424,0.079622
1894.02668,0.080482
1892.097936,0.08143
1890.169192,0.082165
1888.240448,0.082614
1886.311704,0.082918
1884.38296,0.083311
1882.454216,0.083928
1880.525472,0.084556
1878.596727,0.084988
1876.667983,0.085519
1874.739239,0.08629
1872.810495,0.086831
1870.881751,0.087079
1868.953007,0.087405
1867.024263,0.087772
1865.095519,0.088113
1863.166775,0.088507
1861.238031,0.088969
1859.309287,0.089511
1857.380543,0.089963
1855.451799,0.090223
1853.523055,0.090492
1851.59431,0.09087
1849.665566,0.091186
1847.736822,0.091401
1845.808078,0.091791
1843.879334,0.092449
1841.95059,0.093027
1840.021846,0.093353
1838.093102,0.093673
1836.164358,0.094092
1834.235614,0.094457
1832.30687,0.09477
1830.378126,0.095126
1828.449382,0.095531
1826.520637,0.095995
1824.591893,0.096481
1822.663149,0.096843
1820.734405,0.097096
1818.805661,0.097523
1816.876917,0.098361
1814.948173,0.099366
1813.019429,0.100114
1811.090685,0.100636
1809.161941,0.101162
1807.233197,0.101698
1805.304453,0.102221
1803.375709,0.102821
1801.446965,0.103577
1799.51822,0.104353
1797.589476,0.104898
1795.660732,0.105144
1793.731988,0.105223
1791.803244,0.105222
1789.8745,0.105068
1787.945756,0.104861
1786.017012,0.104795
1784.088268,0.104787
1782.159524,0.104779
1780.23078,0.104878
1778.302036,0.105035
1776.373292,0.105176
1774.444547,0.105412
1772.515803,0.105772
1770.587059,0.106111
1768.658315,0.106364
1766.729571,0.106582
1764.800827,0.10682
1762.872083,0.107171
1760.943339,0.107682
1759.014595,0.108347
1757.085851,0.109183
1755.157107,0.110141
1753.228363,0.111255
1751.299619,0.112603
1749.370875,0.113983
1747.44213,0.115252
1745.513386,0.116486
1743.584642,0.117621
1741.655898,0.118534
1739.727154,0.119077
1737.79841,0.119002
1735.869666,0.118417
1733.940922,0.117743
1732.012178,0.117169
1730.083434,0.116718
1728.15469,0.116427
1726.225946,0.116268
1724.297202,0.116221
1722.368458,0.116249
1720.439713,0.116386
1718.510969,0.116768
1716.582225,0.117339
1714.653481,0.117862
1712.724737,0.11828
1710.795993,0.118661
1708.867249,0.11903
1706.938505,0.119398
1705.009761,0.119803
1703.081017,0.120344
1701.152273,0.121082
1699.223529,0.121859
1697.294785,0.122607
1695.36604,0.123374
1693.437296,0.12401
1691.508552,0.124585
1689.579808,0.125272
1687.651064,0.125984
1685.72232,0.126792
1683.793576,0.127661
1681.864832,0.128246
1679.936088,0.128643
1678.007344,0.129111
1676.0786,0.129647
1674.149856,0.130217
1672.221112,0.130857
1670.292368,0.131681
1668.363623,0.132653
1666.434879,0.133572
1664.506135,0.134461
1662.577391,0.135373
1660.648647,0.136145
1658.719903,0.136686
1656.791159,0.137078
1654.862415,0.137532
1652.933671,0.138105
1651.004927,0.138432
1649.076183,0.138489
1647.147439,0.138583
1645.218695,0.138629
1643.289951,0.138486
1641.361206,0.138342
1639.432462,0.13833
1637.503718,0.13841
1635.574974,0.138496
1633.64623,0.138476
1631.717486,0.138422
1629.788742,0.138539
1627.859998,0.138807
1625.931254,0.139055
1624.00251,0.139262
1622.073766,0.139398
1620.145022,0.139369
1618.216278,0.139322
1616.287533,0.139463
1614.358789,0.139719
1612.430045,0.139997
1610.501301,0.140383
1608.572557,0.140979
1606.643813,0.141733
1604.715069,0.142525
1602.786325,0.143353
1600.857581,0.144184
1598.928837,0.144868
1597.000093,0.145306
1595.071349,0.145479
1593.142605,0.1454
1591.213861,0.145146
1589.285116,0.144833
1587.356372,0.144555
1585.427628,0.144344
1583.498884,0.144192
1581.57014,0.144042
1579.641396,0.143821
1577.712652,0.143621
1575.783908,0.143518
1573.855164,0.143374
1571.92642,0.143192
1569.997676,0.143078
1568.068932,0.142969
1566.140188,0.142831
1564.211443,0.142729
1562.282699,0.142717
1560.353955,0.142968
1558.425211,0.143468
1556.496467,0.143874
1554.567723,0.144179
1552.638979,0.144563
1550.710235,0.145061
1548.781491,0.145686
1546.852747,0.146458
1544.924003,0.147397
1542.995259,0.14855
1541.066515,0.149864
1539.137771,0.150771
1537.209026,0.150674
1535.280282,0.149876
1533.351538,0.148956
1531.422794,0.148183
1529.49405,0.147672
1527.565306,0.147452
1525.636562,0.147402
1523.707818,0.147522
1521.779074,0.147896
1519.85033,0.148343
1517.921586,0.148709
1515.992842,0.149046
1514.064098,0.14932
1512.135354,0.14947
1510.206609,0.149591
1508.277865,0.14989
1506.349121,0.150434
1504.420377,0.150931
1502.491633,0.151245
1500.562889,0.151652
1498.634145,0.152341
1496.705401,0.153238
1494.776657,0.154086
1492.847913,0.154779
1490.919169,0.155459
1488.990425,0.156184
1487.061681,0.156858
1485.132936,0.157437
1483.204192,0.15798
1481.275448,0.158596
1479.346704,0.159935
1477.41796,0.165433
1475.489216,0.181533
1473.560472,0.207325
1471.631728,0.228407
1469.702984,0.237015
1467.77424,0.24176
1465.845496,0.249757
1463.916752,0.259775
1461.988008,0.264447
1460.059264,0.260112
1458.130519,0.252793
1456.201775,0.247904
1454.273031,0.244495
1452.344287,0.241087
1450.415543,0.23823
1448.486799,0.236499
1446.558055,0.235723
1444.629311,0.235504
1442.700567,0.235628
1440.771823,0.236064
1438.843079,0.236822
1436.914335,0.237894
1434.985591,0.238988
1433.056847,0.239827
1431.128102,0.240519
1429.199358,0.241166
1427.270614,0.241829
1425.34187,0.242589
1423.413126,0.243461
1421.484382,0.244393
1419.555638,0.245311
1417.626894,0.24599
1415.69815,0.246167
1413.769406,0.245746
1411.840662,0.24466
1409.911918,0.24301
1407.983174,0.240975
1406.054429,0.238674
1404.125685,0.236404
1402.196941,0.234554
1400.268197,0.233185
1398.339453,0.231936
1396.410709,0.230407
1394.481965,0.228435
1392.553221,0.226141
1390.624477,0.223813
1388.695733,0.221635
1386.766989,0.219702
1384.838245,0.218195
1382.909501,0.217524
1380.980757,0.217953
1379.052012,0.218807
1377.123268,0.218848
1375.194524,0.217707
1373.26578,0.216177
1371.337036,0.215078
1369.408292,0.214492
1367.479548,0.213967
1365.550804,0.21311
1363.62206,0.211869
1361.693316,0.210389
1359.764572,0.208882
1357.835828,0.207513
1355.907084,0.20635
1353.97834,0.205356
1352.049595,0.204408
1350.120851,0.203391
1348.192107,0.202282
1346.263363,0.201139
1344.334619,0.199985
1342.405875,0.19883
1340.477131,0.197713
1338.548387,0.196639
1336.619643,0.19557
1334.690899,0.194485
1332.762155,0.193449
1330.833411,0.19259
1328.904667,0.191974
1326.975922,0.191507
1325.047178,0.191123
1323.118434,0.190882
1321.18969,0.190766
1319.260946,0.190704
1317.332202,0.190679
1315.403458,0.190666
1313.474714,0.190623
1311.54597,0.190548
1309.617226,0.190486
1307.688482,0.190422
1305.759738,0.190258
1303.830994,0.189981
1301.90225,0.189655
1299.973505,0.189282
1298.044761,0.188842
1296.116017,0.188358
1294.187273,0.187904
1292.258529,0.18753
1290.329785,0.187165
1288.401041,0.186784
1286.472297,0.186464
1284.543553,0.186208
1282.614809,0.185985
1280.686065,0.185864
1278.757321,0.185877
1276.828577,0.18593
1274.899832,0.185973
1272.971088,0.186113
1271.042344,0.186557
1269.1136,0.187492
1267.184856,0.188935
1265.256112,0.190633
1263.327368,0.192068
1261.398624,0.192684
1259.46988,0.19228
1257.541136,0.191102
1255.612392,0.189552
1253.683648,0.188047
1251.754904,0.186932
1249.82616,0.186233
1247.897415,0.18577
1245.968671,0.185475
1244.039927,0.185301
1242.111183,0.185097
1240.182439,0.184827
1238.253695,0.184601
1236.324951,0.184389
1234.396207,0.184068
1232.467463,0.183632
1230.538719,0.183131
1228.609975,0.182625
1226.681231,0.182139
1224.752487,0.181653
1222.823743,0.181179
1220.894998,0.180742
1218.966254,0.180379
1217.03751,0.180097
1215.108766,0.179803
1213.180022,0.179464
1211.251278,0.179153
1209.322534,0.178908
1207.39379,0.178695
1205.465046,0.178484
1203.536302,0.17832
1201.607558,0.178243
1199.678814,0.178208
1197.75007,0.178181
1195.821325,0.178175
1193.892581,0.178183
1191.963837,0.178158
1190.035093,0.178111
1188.106349,0.178124
1186.177605,0.178204
1184.248861,0.178309
1182.320117,0.178471
1180.391373,0.178702
1178.462629,0.178989
1176.533885,0.179338
1174.605141,0.179727
1172.676397,0.180128
1170.747653,0.180523
1168.818908,0.180901
1166.890164,0.181228
1164.96142,0.181418
1163.032676,0.18145
1161.103932,0.181416
1159.175188,0.18141
1157.246444,0.181369
1155.3177,0.181184
1153.388956,0.180899
1151.460212,0.180634
1149.531468,0.180451
1147.602724,0.180321
1145.67398,0.180223
1143.745236,0.180202
1141.816491,0.180251
1139.887747,0.18034
1137.959003,0.180512
1136.030259,0.18084
1134.101515,0.181372
1132.172771,0.182105
1130.244027,0.182973
1128.315283,0.183895
1126.386539,0.18481
1124.457795,0.185693
1122.529051,0.186552
1120.600307,0.187335
1118.671563,0.187953
1116.742818,0.188431
1114.814074,0.188848
1112.88533,0.189152
1110.956586,0.189335
1109.027842,0.189521
1107.099098,0.189713
1105.170354,0.189814
1103.24161,0.189823
1101.312866,0.189834
1099.384122,0.189927
1097.455378,0.19005
1095.526634,0.190097
1093.59789,0.190032
1091.669146,0.189895
1089.740401,0.18975
1087.811657,0.189601
1085.882913,0.189423
1083.954169,0.189274
1082.025425,0.189109
1080.096681,0.188721
1078.167937,0.188071
1076.239193,0.187341
1074.310449,0.186683
1072.381705,0.186084
1070.452961,0.185476
1068.524217,0.184895
1066.595473,0.184428
1064.666728,0.184108
1062.737984,0.183867
1060.80924,0.183609
1058.880496,0.183368
1056.951752,0.18324
1055.023008,0.183258
1053.094264,0.18347
1051.16552,0.18387
1049.236776,0.184319
1047.308032,0.1847
1045.379288,0.185002
1043.450544,0.185176
1041.5218,0.18517
1039.593056,0.185086
1037.664311,0.184987
1035.735567,0.184766
1033.806823,0.184414
1031.878079,0.184132
1029.949335,0.184032
1028.020591,0.184001
1026.091847,0.183978
1024.163103,0.183993
1022.234359,0.184003
1020.305615,0.183955
1018.376871,0.183695
1016.448127,0.183034
1014.519383,0.18204
1012.590639,0.180833
1010.661894,0.179502
1008.73315,0.17821
1006.804406,0.177038
1004.875662,0.176005
1002.946918,0.175179
1001.018174,0.17455
999.08943,0.173935
997.160686,0.173184
995.231942,0.172382
993.303198,0.17166
991.374454,0.171064
989.44571,0.170607
987.516966,0.17024
985.588221,0.169926
983.659477,0.169682
981.730733,0.169472
979.801989,0.169232
977.873245,0.16899
975.944501,0.168862
974.015757,0.168818
972.087013,0.168684
970.158269,0.168521
968.229525,0.168493
966.300781,0.16849
964.372037,0.168348
962.443293,0.168099
960.514549,0.167867
958.585804,0.167753
956.65706,0.167729
954.728316,0.167608
952.799572,0.167324
950.870828,0.167082
948.942084,0.167004
947.01334,0.166952
945.084596,0.166771
943.155852,0.166576
941.227108,0.166506
939.298364,0.166404
937.36962,0.166212
935.440876,0.16615
933.512132,0.16622
931.583387,0.166186
929.654643,0.16601
927.725899,0.165802
925.797155,0.165578
923.868411,0.165357
921.939667,0.165171
920.010923,0.164942
918.082179,0.164623
916.153435,0.164325
914.224691,0.164147
912.295947,0.16404
910.367203,0.163905
908.438459,0.16376
906.509714,0.163605
904.58097,0.163308
902.652226,0.162918
900.723482,0.162638
898.794738,0.162428
896.865994,0.162096
894.93725,0.161682
893.008506,0.161334
891.079762,0.161216
889.151018,0.161989
887.222274,0.165025
885.29353,0.171116
883.364786,0.17916
881.436042,0.188143
879.507297,0.19913
877.578553,0.212213
875.649809,0.223627
873.721065,0.228484
871.792321,0.225306
869.863577,0.217077
867.934833,0.208212
866.006089,0.201113
864.077345,0.195844
862.148601,0.191888
860.219857,0.189006
858.291113,0.186864
856.362369,0.185051
854.433625,0.183429
852.50488,0.182135
850.576136,0.181625
848.647392,0.18184
846.718648,0.181629
844.789904,0.180545
842.86116,0.179405
840.932416,0.178626
839.003672,0.178102
837.074928,0.177783
835.146184,0.177528
833.21744,0.177286
831.288696,0.177213
829.359952,0.17748
827.431207,0.17812
825.502463,0.178907
823.573719,0.179587
821.644975,0.180181
819.716231,0.180787
817.787487,0.181395
815.858743,0.181989
813.929999,0.182613
812.001255,0.183231
810.072511,0.183743
808.143767,0.18415
806.215023,0.184463
804.286279,0.184645
802.357535,0.18465
800.42879,0.184476
798.500046,0.184179
796.571302,0.18374
794.642558,0.183117
792.713814,0.182311
790.78507,0.181391
788.856326,0.180538
786.927582,0.179831
784.998838,0.179245
783.070094,0.178855
781.14135,0.178689
779.212606,0.178643
777.283862,0.178658
775.355117,0.17869
773.426373,0.178713
771.497629,0.178705
769.568885,0.178576
767.640141,0.178319
765.711397,0.177982
763.782653,0.177744
761.853909,0.177788
759.925165,0.177918
757.996421,0.17783
756.067677,0.177496
754.138933,0.177039
752.210189,0.176542
750.281445,0.176129
748.3527,0.175907
746.423956,0.175773
744.495212,0.17547
742.566468,0.174926
740.637724,0.174394
738.70898,0.174038
736.780236,0.174235
734.851492,0.177969
732.922748,0.190498
730.994004,0.209491
729.06526,0.221594
727.136516,0.221597
725.207772,0.220687
723.279028,0.23006
721.350283,0.251697
719.421539,0.275631
717.492795,0.286654
715.564051,0.283032
713.635307,0.274108
711.706563,0.263887
709.777819,0.251874
707.849075,0.240064
705.920331,0.231054
703.991587,0.224934
702.062843,0.220623
700.134099,0.217327
698.205355,0.214788
696.27661,0.212897
694.347866,0.211348
692.419122,0.210062
690.490378,0.209121
688.561634,0.208327
686.63289,0.207483
684.704146,0.206664
682.775402,0.206012
680.846658,0.205622
678.917914,0.205415
676.98917,0.205205
675.060426,0.205062
673.131682,0.205059
671.202938,0.205033
669.274193,0.204957
667.345449,0.204937
665.416705,0.204961
663.487961,0.204882
661.559217,0.204591
659.630473,0.204223
657.701729,0.203847
655.772985,0.203392
653.844241,0.203069
651.915497,0.202936
649.986753,0.202689
648.058009,0.202278
646.129265,0.201921
644.200521,0.201686
642.271776,0.201373
640.343032,0.20092
638.414288,0.200561
636.485544,0.200465
634.5568,0.200603
632.628056,0.200794
630.699312,0.200916
628.770568,0.20095
626.841824,0.200832
624.91308,0.200723
622.984336,0.200886
621.055592,0.201155
619.126848,0.201254
617.198103,0.201261
615.269359,0.201285
613.340615,0.201368
611.411871,0.201467
609.483127,0.201341
607.554383,0.200966
605.625639,0.200488
603.696895,0.199979
601.768151,0.199607
599.839407,0.199607
597.910663,0.199968
595.981919,0.200196
594.053175,0.199962
592.124431,0.19955
590.195686,0.19926
588.266942,0.199266
586.338198,0.199479
584.409454,0.199568
582.48071,0.199586
580.551966,0.199686
578.623222,0.199792
576.694478,0.199949
574.765734,0.200289
572.83699,0.200708
570.908246,0.20086
568.979502,0.200585
567.050758,0.200288
565.122013,0.200435
563.193269,0.200719
561.264525,0.200694
559.335781,0.200644
557.407037,0.200888
555.478293,0.201264
553.549549,0.201563
551.620805,0.201613
549.692061,0.201435
547.763317,0.201557
545.834573,0.202196
543.905829,0.202866
541.977085,0.203362
540.048341,0.203772
538.119596,0.203976
536.190852,0.204089
534.262108,0.204257
532.333364,0.203979
530.40462,0.202927
528.475876,0.201871
526.547132,0.201688
524.618388,0.202169
522.689644,0.202465
520.7609,0.202162
518.832156,0.201584
516.903412,0.201465
514.974668,0.201972
513.045924,0.202283
511.117179,0.201972
509.188435,0.20149
507.259691,0.201216
505.330947,0.201197
503.402203,0.201187
501.473459,0.201133
499.544715,0.201279
497.615971,0.201454
495.687227,0.201601
493.758483,0.201891
491.829739,0.201911
489.900995,0.201583
487.972251,0.201456
486.043506,0.201534
484.114762,0.201667
482.186018,0.201995
480.257274,0.202478
478.32853,0.202904
476.399786,0.202962
474.471042,0.202611
472.542298,0.202232
470.613554,0.202229
468.68481,0.202679
466.756066,0.203163
464.827322,0.203167
462.898578,0.202723
460.969834,0.202453
459.041089,0.202562
457.112345,0.202426
455.183601,0.201695
453.254857,0.200734
451.326113,0.200126
449.397369,0.199966
447.468625,0.200013
445.539881,0.200383
443.611137,0.200876
441.682393,0.201102
439.753649,0.201173
437.824905,0.201041
435.896161,0.201051
433.967417,0.202227
432.038672,0.204219
430.109928,0.205415
428.181184,0.205568
426.25244,0.205788
424.323696,0.206054
422.394952,0.205489
420.466208,0.204975
418.537464,0.205758
416.60872,0.206726
414.679976,0.206458
412.751232,0.205173
410.822488,0.203889
408.893744,0.203597
406.964999,0.204059
405.036255,0.203882
403.107511,0.203092
401.178767,0.202304
399.250023,0.201882
