3996.35772,0.010082,Unnamed: 2,Unnamed: 3,Unnamed: 4,Unnamed: 5
3994.428976,0.01004,,,,
3992.500232,0.009991,,,,Actually is the green PCB green side
3990.571488,0.00992,,,,
3988.642744,0.009795,,,,
3986.714,0.009762,,,,
3984.785256,0.009924,,,,
3982.856511,0.010061,,,,
3980.927767,0.010125,,,,
3978.999023,0.010271,,,,
3977.070279,0.010356,,,,
3975.141535,0.010251,,,,
3973.212791,0.010111,,,,
3971.284047,0.010098,,,,
3969.355303,0.010211,,,,
3967.426559,0.010261,,,,
3965.497815,0.010153,,,,
3963.569071,0.010016,,,,
3961.640327,0.009962,,,,
3959.711583,0.01004,,,,
3957.782839,0.010129,,,,
3955.854094,0.010042,,,,
3953.92535,0.009919,,,,
3951.996606,0.009975,,,,
3950.067862,0.01006,,,,
3948.139118,0.009994,,,,
3946.210374,0.009932,,,,
3944.28163,0.009999,,,,
3942.352886,0.010067,,,,
3940.424142,0.009995,,,,
3938.495398,0.009879,,,,
3936.566654,0.00993,,,,
3934.63791,0.010106,,,,
3932.709166,0.010156,,,,
3930.780422,0.010075,,,,
3928.851677,0.010117,,,,
3926.922933,0.01026,,,,
3924.994189,0.010195,,,,
3923.065445,0.009892,,,,
3921.136701,0.009705,,,,
3919.207957,0.009755,,,,
3917.279213,0.009785,,,,
3915.350469,0.009744,,,,
3913.421725,0.009653,,,,
3911.492981,0.009467,,,,
3909.564237,0.009392,,,,
3907.635493,0.009484,,,,
3905.706749,0.009509,,,,
3903.778004,0.009522,,,,
3901.84926,0.009747,,,,
3899.920516,0.009981,,,,
3897.991772,0.009918,,,,
3896.063028,0.009715,,,,
3894.134284,0.009639,,,,
3892.20554,0.009666,,,,
3890.276796,0.009653,,,,
3888.348052,0.009601,,,,
3886.419308,0.009549,,,,
3884.490564,0.009524,,,,
3882.56182,0.009606,,,,
3880.633076,0.009702,,,,
3878.704332,0.009645,,,,
3876.775587,0.009536,,,,
3874.846843,0.009592,,,,
3872.918099,0.009862,,,,
3870.989355,0.010095,,,,
3869.060611,0.010048,,,,
3867.131867,0.009884,,,,
3865.203123,0.009745,,,,
3863.274379,0.009544,,,,
3861.345635,0.009356,,,,
3859.416891,0.009335,,,,
3857.488147,0.009544,,,,
3855.559403,0.00984,,,,
3853.630659,0.00985,,,,
3851.701915,0.009539,,,,
3849.77317,0.009226,,,,
3847.844426,0.009036,,,,
3845.915682,0.008983,,,,
3843.986938,0.00903,,,,
3842.058194,0.009179,,,,
3840.12945,0.009403,,,,
3838.200706,0.009463,,,,
3836.271962,0.009382,,,,
3834.343218,0.00938,,,,
3832.414474,0.009331,,,,
3830.48573,0.009181,,,,
3828.556986,0.009085,,,,
3826.628242,0.009038,,,,
3824.699497,0.009075,,,,
3822.770753,0.00914,,,,
3820.842009,0.009007,,,,
3818.913265,0.008872,,,,
3816.984521,0.008968,,,,
3815.055777,0.009099,,,,
3813.127033,0.009134,,,,
3811.198289,0.009107,,,,
3809.269545,0.009031,,,,
3807.340801,0.008993,,,,
3805.412057,0.009058,,,,
3803.483313,0.009144,,,,
3801.554569,0.009166,,,,
3799.625825,0.009143,,,,
3797.69708,0.009124,,,,
3795.768336,0.009126,,,,
3793.839592,0.009126,,,,
3791.910848,0.009068,,,,
3789.982104,0.0089,,,,
3788.05336,0.008717,,,,
3786.124616,0.008759,,,,
3784.195872,0.008974,,,,
3782.267128,0.009071,,,,
3780.338384,0.009052,,,,
3778.40964,0.009036,,,,
3776.480896,0.008944,,,,
3774.552152,0.008756,,,,
3772.623408,0.008617,,,,
3770.694663,0.008608,,,,
3768.765919,0.008685,,,,
3766.837175,0.008744,,,,
3764.908431,0.008708,,,,
3762.979687,0.008654,,,,
3761.050943,0.008712,,,,
3759.122199,0.008828,,,,
3757.193455,0.008864,,,,
3755.264711,0.008857,,,,
3753.335967,0.008916,,,,
3751.407223,0.009072,,,,
3749.478479,0.009289,,,,
3747.549735,0.009404,,,,
3745.62099,0.009311,,,,
3743.692246,0.009045,,,,
3741.763502,0.008748,,,,
3739.834758,0.008642,,,,
3737.906014,0.008689,,,,
3735.97727,0.008662,,,,
3734.048526,0.008627,,,,
3732.119782,0.008627,,,,
3730.191038,0.008584,,,,
3728.262294,0.008688,,,,
3726.33355,0.008921,,,,
3724.404806,0.008995,,,,
3722.476062,0.008776,,,,
3720.547318,0.008261,,,,
3718.618573,0.007858,,,,
3716.689829,0.008019,,,,
3714.761085,0.008469,,,,
3712.832341,0.008737,,,,
3710.903597,0.008756,,,,
3708.974853,0.008573,,,,
3707.046109,0.008256,,,,
3705.117365,0.008009,,,,
3703.188621,0.007906,,,,
3701.259877,0.007918,,,,
3699.331133,0.008189,,,,
3697.402389,0.008592,,,,
3695.473645,0.008756,,,,
3693.5449,0.008738,,,,
3691.616156,0.0088,,,,
3689.687412,0.008881,,,,
3687.758668,0.008837,,,,
3685.829924,0.008772,,,,
3683.90118,0.008859,,,,
3681.972436,0.009135,,,,
3680.043692,0.009653,,,,
3678.114948,0.010439,,,,
3676.186204,0.011101,,,,
3674.25746,0.011281,,,,
3672.328716,0.011213,,,,
3670.399972,0.011079,,,,
3668.471228,0.010938,,,,
3666.542483,0.01097,,,,
3664.613739,0.011152,,,,
3662.684995,0.011276,,,,
3660.756251,0.011268,,,,
3658.827507,0.011233,,,,
3656.898763,0.011289,,,,
3654.970019,0.011539,,,,
3653.041275,0.01205,,,,
3651.112531,0.012718,,,,
3649.183787,0.013128,,,,
3647.255043,0.013042,,,,
3645.326299,0.012957,,,,
3643.397555,0.013302,,,,
3641.468811,0.013768,,,,
3639.540066,0.013964,,,,
3637.611322,0.014051,,,,
3635.682578,0.014318,,,,
3633.753834,0.014744,,,,
3631.82509,0.015223,,,,
3629.896346,0.01559,,,,
3627.967602,0.015743,,,,
3626.038858,0.016006,,,,
3624.110114,0.016559,,,,
3622.18137,0.017128,,,,
3620.252626,0.017544,,,,
3618.323882,0.017884,,,,
3616.395138,0.018193,,,,
3614.466393,0.018507,,,,
3612.537649,0.018881,,,,
3610.608905,0.019281,,,,
3608.680161,0.019661,,,,
3606.751417,0.019941,,,,
3604.822673,0.020053,,,,
3602.893929,0.020228,,,,
3600.965185,0.020654,,,,
3599.036441,0.021105,,,,
3597.107697,0.021438,,,,
3595.178953,0.0218,,,,
3593.250209,0.022239,,,,
3591.321465,0.022666,,,,
3589.392721,0.023084,,,,
3587.463976,0.023495,,,,
3585.535232,0.02371,,,,
3583.606488,0.023799,,,,
3581.677744,0.024169,,,,
3579.749,0.02478,,,,
3577.820256,0.025292,,,,
3575.891512,0.025785,,,,
3573.962768,0.026386,,,,
3572.034024,0.026887,,,,
3570.10528,0.027247,,,,
3568.176536,0.027656,,,,
3566.247792,0.028135,,,,
3564.319048,0.02864,,,,
3562.390304,0.029143,,,,
3560.461559,0.029601,,,,
3558.532815,0.030056,,,,
3556.604071,0.030511,,,,
3554.675327,0.03093,,,,
3552.746583,0.031353,,,,
3550.817839,0.031819,,,,
3548.889095,0.032285,,,,
3546.960351,0.032681,,,,
3545.031607,0.033064,,,,
3543.102863,0.03353,,,,
3541.174119,0.034068,,,,
3539.245375,0.034632,,,,
3537.316631,0.035175,,,,
3535.387886,0.035624,,,,
3533.459142,0.03594,,,,
3531.530398,0.036259,,,,
3529.601654,0.036733,,,,
3527.67291,0.037271,,,,
3525.744166,0.037722,,,,
3523.815422,0.038121,,,,
3521.886678,0.038549,,,,
3519.957934,0.038973,,,,
3518.02919,0.039332,,,,
3516.100446,0.039576,,,,
3514.171702,0.03978,,,,
3512.242958,0.040193,,,,
3510.314214,0.040819,,,,
3508.385469,0.041399,,,,
3506.456725,0.041912,,,,
3504.527981,0.042406,,,,
3502.599237,0.04272,,,,
3500.670493,0.042978,,,,
3498.741749,0.043464,,,,
3496.813005,0.044054,,,,
3494.884261,0.044536,,,,
3492.955517,0.044932,,,,
3491.026773,0.045343,,,,
3489.098029,0.045837,,,,
3487.169285,0.046282,,,,
3485.240541,0.046556,,,,
3483.311796,0.046827,,,,
3481.383052,0.047231,,,,
3479.454308,0.047647,,,,
3477.525564,0.048016,,,,
3475.59682,0.04835,,,,
3473.668076,0.048622,,,,
3471.739332,0.04889,,,,
3469.810588,0.049199,,,,
3467.881844,0.049509,,,,
3465.9531,0.049834,,,,
3464.024356,0.050227,,,,
3462.095612,0.050645,,,,
3460.166868,0.050972,,,,
3458.238124,0.051187,,,,
3456.309379,0.051449,,,,
3454.380635,0.051853,,,,
3452.451891,0.052212,,,,
3450.523147,0.052369,,,,
3448.594403,0.052409,,,,
3446.665659,0.052551,,,,
3444.736915,0.052915,,,,
3442.808171,0.053286,,,,
3440.879427,0.053516,,,,
3438.950683,0.05375,,,,
3437.021939,0.054016,,,,
3435.093195,0.054218,,,,
3433.164451,0.054395,,,,
3431.235707,0.054616,,,,
3429.306962,0.054824,,,,
3427.378218,0.055028,,,,
3425.449474,0.055291,,,,
3423.52073,0.055494,,,,
3421.591986,0.055605,,,,
3419.663242,0.055818,,,,
3417.734498,0.056124,,,,
3415.805754,0.056299,,,,
3413.87701,0.056347,,,,
3411.948266,0.056407,,,,
3410.019522,0.056481,,,,
3408.090778,0.056549,,,,
3406.162034,0.056626,,,,
3404.233289,0.056724,,,,
3402.304545,0.056834,,,,
3400.375801,0.05696,,,,
3398.447057,0.057141,,,,
3396.518313,0.057298,,,,
3394.589569,0.057331,,,,
3392.660825,0.057368,,,,
3390.732081,0.057578,,,,
3388.803337,0.057816,,,,
3386.874593,0.05789,,,,
3384.945849,0.057896,,,,
3383.017105,0.057885,,,,
3381.088361,0.057832,,,,
3379.159617,0.057814,,,,
3377.230872,0.05786,,,,
3375.302128,0.057972,,,,
3373.373384,0.058139,,,,
3371.44464,0.058231,,,,
3369.515896,0.058168,,,,
3367.587152,0.058083,,,,
3365.658408,0.058067,,,,
3363.729664,0.058126,,,,
3361.80092,0.058217,,,,
3359.872176,0.058204,,,,
3357.943432,0.058228,,,,
3356.014688,0.058438,,,,
3354.085944,0.058513,,,,
3352.1572,0.058348,,,,
3350.228455,0.058266,,,,
3348.299711,0.058343,,,,
3346.370967,0.058437,,,,
3344.442223,0.058528,,,,
3342.513479,0.058553,,,,
3340.584735,0.058438,,,,
3338.655991,0.058341,,,,
3336.727247,0.058432,,,,
3334.798503,0.058677,,,,
3332.869759,0.05892,,,,
3330.941015,0.059006,,,,
3329.012271,0.058961,,,,
3327.083527,0.058985,,,,
3325.154782,0.059046,,,,
3323.226038,0.058932,,,,
3321.297294,0.05876,,,,
3319.36855,0.058729,,,,
3317.439806,0.058775,,,,
3315.511062,0.058825,,,,
3313.582318,0.058862,,,,
3311.653574,0.05886,,,,
3309.72483,0.058839,,,,
3307.796086,0.058835,,,,
3305.867342,0.058896,,,,
3303.938598,0.059062,,,,
3302.009854,0.059218,,,,
3300.08111,0.059241,,,,
3298.152365,0.059269,,,,
3296.223621,0.059336,,,,
3294.294877,0.059262,,,,
3292.366133,0.059133,,,,
3290.437389,0.059141,,,,
3288.508645,0.059196,,,,
3286.579901,0.059228,,,,
3284.651157,0.059331,,,,
3282.722413,0.059453,,,,
3280.793669,0.059464,,,,
3278.864925,0.059375,,,,
3276.936181,0.059283,,,,
3275.007437,0.059248,,,,
3273.078692,0.059245,,,,
3271.149948,0.059221,,,,
3269.221204,0.059199,,,,
3267.29246,0.05919,,,,
3265.363716,0.059154,,,,
3263.434972,0.059131,,,,
3261.506228,0.059052,,,,
3259.577484,0.058767,,,,
3257.64874,0.058447,,,,
3255.719996,0.05826,,,,
3253.791252,0.058156,,,,
3251.862508,0.058175,,,,
3249.933764,0.058206,,,,
3248.00502,0.058113,,,,
3246.076275,0.058026,,,,
3244.147531,0.057961,,,,
3242.218787,0.057865,,,,
3240.290043,0.057824,,,,
3238.361299,0.057793,,,,
3236.432555,0.057653,,,,
3234.503811,0.057473,,,,
3232.575067,0.057327,,,,
3230.646323,0.057172,,,,
3228.717579,0.057055,,,,
3226.788835,0.057024,,,,
3224.860091,0.056979,,,,
3222.931347,0.057011,,,,
3221.002603,0.057181,,,,
3219.073858,0.057184,,,,
3217.145114,0.056948,,,,
3215.21637,0.056708,,,,
3213.287626,0.056494,,,,
3211.358882,0.056355,,,,
3209.430138,0.05635,,,,
3207.501394,0.056241,,,,
3205.57265,0.056001,,,,
3203.643906,0.055904,,,,
3201.715162,0.055891,,,,
3199.786418,0.055746,,,,
3197.857674,0.055507,,,,
3195.92893,0.055356,,,,
3194.000185,0.05535,,,,
3192.071441,0.055327,,,,
3190.142697,0.055207,,,,
3188.213953,0.055056,,,,
3186.285209,0.054849,,,,
3184.356465,0.05457,,,,
3182.427721,0.054314,,,,
3180.498977,0.054085,,,,
3178.570233,0.053814,,,,
3176.641489,0.053614,,,,
3174.712745,0.053596,,,,
3172.784001,0.053584,,,,
3170.855257,0.053444,,,,
3168.926513,0.053328,,,,
3166.997768,0.053302,,,,
3165.069024,0.053184,,,,
3163.14028,0.052909,,,,
3161.211536,0.052665,,,,
3159.282792,0.052574,,,,
3157.354048,0.052462,,,,
3155.425304,0.052181,,,,
3153.49656,0.051867,,,,
3151.567816,0.051637,,,,
3149.639072,0.05144,,,,
3147.710328,0.051223,,,,
3145.781584,0.051061,,,,
3143.85284,0.050926,,,,
3141.924096,0.050638,,,,
3139.995351,0.050365,,,,
3138.066607,0.050389,,,,
3136.137863,0.050493,,,,
3134.209119,0.050383,,,,
3132.280375,0.050146,,,,
3130.351631,0.049968,,,,
3128.422887,0.049892,,,,
3126.494143,0.049886,,,,
3124.565399,0.049852,,,,
3122.636655,0.049701,,,,
3120.707911,0.049471,,,,
3118.779167,0.049213,,,,
3116.850423,0.048991,,,,
3114.921678,0.048901,,,,
3112.992934,0.048884,,,,
3111.06419,0.048798,,,,
3109.135446,0.048661,,,,
3107.206702,0.048555,,,,
3105.277958,0.048508,,,,
3103.349214,0.048545,,,,
3101.42047,0.048577,,,,
3099.491726,0.04847,,,,
3097.562982,0.048302,,,,
3095.634238,0.048243,,,,
3093.705494,0.048282,,,,
3091.77675,0.048332,,,,
3089.848006,0.048443,,,,
3087.919261,0.048645,,,,
3085.990517,0.048813,,,,
3084.061773,0.048837,,,,
3082.133029,0.048767,,,,
3080.204285,0.048736,,,,
3078.275541,0.04886,,,,
3076.346797,0.049068,,,,
3074.418053,0.049188,,,,
3072.489309,0.04929,,,,
3070.560565,0.049392,,,,
3068.631821,0.049276,,,,
3066.703077,0.049026,,,,
3064.774333,0.048919,,,,
3062.845589,0.048917,,,,
3060.916844,0.048902,,,,
3058.9881,0.048879,,,,
3057.059356,0.048772,,,,
3055.130612,0.04852,,,,
3053.201868,0.048275,,,,
3051.273124,0.048225,,,,
3049.34438,0.048307,,,,
3047.415636,0.048346,,,,
3045.486892,0.04834,,,,
3043.558148,0.048345,,,,
3041.629404,0.048414,,,,
3039.70066,0.048559,,,,
3037.771916,0.04865,,,,
3035.843171,0.048705,,,,
3033.914427,0.048832,,,,
3031.985683,0.048982,,,,
3030.056939,0.049139,,,,
3028.128195,0.049336,,,,
3026.199451,0.049629,,,,
3024.270707,0.050065,,,,
3022.341963,0.050571,,,,
3020.413219,0.051125,,,,
3018.484475,0.051765,,,,
3016.555731,0.052451,,,,
3014.626987,0.053149,,,,
3012.698243,0.053786,,,,
3010.769499,0.054354,,,,
3008.840754,0.054991,,,,
3006.91201,0.055679,,,,
3004.983266,0.056271,,,,
3003.054522,0.05687,,,,
3001.125778,0.057771,,,,
2999.197034,0.059016,,,,
2997.26829,0.060343,,,,
2995.339546,0.061628,,,,
2993.410802,0.062916,,,,
2991.482058,0.064265,,,,
2989.553314,0.065831,,,,
2987.62457,0.067654,,,,
2985.695826,0.069588,,,,
2983.767081,0.071532,,,,
2981.838337,0.073445,,,,
2979.909593,0.075293,,,,
2977.980849,0.077031,,,,
2976.052105,0.078679,,,,
2974.123361,0.080492,,,,
2972.194617,0.082754,,,,
2970.265873,0.0854,,,,
2968.337129,0.088157,,,,
2966.408385,0.090951,,,,
2964.479641,0.093832,,,,
2962.550897,0.09672,,,,
2960.622153,0.099434,,,,
2958.693409,0.101816,,,,
2956.764664,0.103814,,,,
2954.83592,0.105443,,,,
2952.907176,0.10677,,,,
2950.978432,0.107952,,,,
2949.049688,0.109077,,,,
2947.120944,0.110221,,,,
2945.1922,0.111638,,,,
2943.263456,0.113538,,,,
2941.334712,0.115879,,,,
2939.405968,0.118464,,,,
2937.477224,0.121111,,,,
2935.54848,0.123774,,,,
2933.619736,0.126379,,,,
2931.690992,0.128709,,,,
2929.762247,0.130621,,,,
2927.833503,0.132062,,,,
2925.904759,0.132788,,,,
2923.976015,0.132463,,,,
2922.047271,0.131,,,,
2920.118527,0.128548,,,,
2918.189783,0.125256,,,,
2916.261039,0.121291,,,,
2914.332295,0.117037,,,,
2912.403551,0.112984,,,,
2910.474807,0.109313,,,,
2908.546063,0.105988,,,,
2906.617319,0.103048,,,,
2904.688574,0.10047,,,,
2902.75983,0.098095,,,,
2900.831086,0.095904,,,,
2898.902342,0.09405,,,,
2896.973598,0.092563,,,,
2895.044854,0.091268,,,,
2893.11611,0.090046,,,,
2891.187366,0.089,,,,
2889.258622,0.088231,,,,
2887.329878,0.087672,,,,
2885.401134,0.087236,,,,
2883.47239,0.086965,,,,
2881.543646,0.087054,,,,
2879.614902,0.087682,,,,
2877.686157,0.088875,,,,
2875.757413,0.090528,,,,
2873.828669,0.092386,,,,
2871.899925,0.094052,,,,
2869.971181,0.095215,,,,
2868.042437,0.095666,,,,
2866.113693,0.095311,,,,
2864.184949,0.09446,,,,
2862.256205,0.09354,,,,
2860.327461,0.09278,,,,
2858.398717,0.092335,,,,
2856.469973,0.092041,,,,
2854.541229,0.09139,,,,
2852.612485,0.08996,,,,
2850.68374,0.087533,,,,
2848.754996,0.084073,,,,
2846.826252,0.079905,,,,
2844.897508,0.075649,,,,
2842.968764,0.071722,,,,
2841.04002,0.068233,,,,
2839.111276,0.065249,,,,
2837.182532,0.062775,,,,
2835.253788,0.06072,,,,
2833.325044,0.059023,,,,
2831.3963,0.057593,,,,
2829.467556,0.05636,,,,
2827.538812,0.055353,,,,
2825.610067,0.054494,,,,
2823.681323,0.053604,,,,
2821.752579,0.052683,,,,
2819.823835,0.051871,,,,
2817.895091,0.051183,,,,
2815.966347,0.050547,,,,
2814.037603,0.049963,,,,
2812.108859,0.04945,,,,
2810.180115,0.048997,,,,
2808.251371,0.048553,,,,
2806.322627,0.048081,,,,
2804.393883,0.047656,,,,
2802.465139,0.047295,,,,
2800.536395,0.046963,,,,
2798.60765,0.046664,,,,
2796.678906,0.046314,,,,
2794.750162,0.045887,,,,
2792.821418,0.045529,,,,
2790.892674,0.045319,,,,
2788.96393,0.04512,,,,
2787.035186,0.044814,,,,
2785.106442,0.044458,,,,
2783.177698,0.044168,,,,
2781.248954,0.043985,,,,
2779.32021,0.043767,,,,
2777.391466,0.043347,,,,
2775.462722,0.042839,,,,
2773.533977,0.042449,,,,
2771.605233,0.042197,,,,
2769.676489,0.042005,,,,
2767.747745,0.041815,,,,
2765.819001,0.041596,,,,
2763.890257,0.041369,,,,
2761.961513,0.041171,,,,
2760.032769,0.040991,,,,
2758.104025,0.040758,,,,
2756.175281,0.040491,,,,
2754.246537,0.040316,,,,
2752.317793,0.040194,,,,
2750.389049,0.039983,,,,
2748.460305,0.039666,,,,
2746.53156,0.039342,,,,
2744.602816,0.039104,,,,
2742.674072,0.038935,,,,
2740.745328,0.038751,,,,
2738.816584,0.038576,,,,
2736.88784,0.038482,,,,
2734.959096,0.038368,,,,
2733.030352,0.038122,,,,
2731.101608,0.037849,,,,
2729.172864,0.037612,,,,
2727.24412,0.037356,,,,
2725.315376,0.037107,,,,
2723.386632,0.03692,,,,
2721.457888,0.036761,,,,
2719.529143,0.036571,,,,
2717.600399,0.036383,,,,
2715.671655,0.036198,,,,
2713.742911,0.035963,,,,
2711.814167,0.035732,,,,
2709.885423,0.035585,,,,
2707.956679,0.035496,,,,
2706.027935,0.035433,,,,
2704.099191,0.035353,,,,
2702.170447,0.035179,,,,
2700.241703,0.034961,,,,
2698.312959,0.034824,,,,
2696.384215,0.034792,,,,
2694.45547,0.034819,,,,
2692.526726,0.034845,,,,
2690.597982,0.034819,,,,
2688.669238,0.034749,,,,
2686.740494,0.034703,,,,
2684.81175,0.034717,,,,
2682.883006,0.034742,,,,
2680.954262,0.034767,,,,
2679.025518,0.034837,,,,
2677.096774,0.034948,,,,
2675.16803,0.035047,,,,
2673.239286,0.035112,,,,
2671.310542,0.035157,,,,
2669.381798,0.035218,,,,
2667.453053,0.035284,,,,
2665.524309,0.03533,,,,
2663.595565,0.035435,,,,
2661.666821,0.03563,,,,
2659.738077,0.03579,,,,
2657.809333,0.035876,,,,
2655.880589,0.035901,,,,
2653.951845,0.035812,,,,
2652.023101,0.035656,,,,
2650.094357,0.035534,,,,
2648.165613,0.035405,,,,
2646.236869,0.035246,,,,
2644.308125,0.03512,,,,
2642.379381,0.035015,,,,
2640.450636,0.034931,,,,
2638.521892,0.034874,,,,
2636.593148,0.034788,,,,
2634.664404,0.034672,,,,
2632.73566,0.034519,,,,
2630.806916,0.034288,,,,
2628.878172,0.03406,,,,
2626.949428,0.033923,,,,
2625.020684,0.033835,,,,
2623.09194,0.033729,,,,
2621.163196,0.033557,,,,
2619.234452,0.033306,,,,
2617.305708,0.033058,,,,
2615.376963,0.03287,,,,
2613.448219,0.032659,,,,
2611.519475,0.032407,,,,
2609.590731,0.032207,,,,
2607.661987,0.032022,,,,
2605.733243,0.031806,,,,
2603.804499,0.031604,,,,
2601.875755,0.031414,,,,
2599.947011,0.031266,,,,
2598.018267,0.031129,,,,
2596.089523,0.030904,,,,
2594.160779,0.030641,,,,
2592.232035,0.030439,,,,
2590.303291,0.030314,,,,
2588.374546,0.03014,,,,
2586.445802,0.029809,,,,
2584.517058,0.029448,,,,
2582.588314,0.029208,,,,
2580.65957,0.029122,,,,
2578.730826,0.029132,,,,
2576.802082,0.029059,,,,
2574.873338,0.028817,,,,
2572.944594,0.028563,,,,
2571.01585,0.028414,,,,
2569.087106,0.028264,,,,
2567.158362,0.028073,,,,
2565.229618,0.027983,,,,
2563.300874,0.028005,,,,
2561.372129,0.028065,,,,
2559.443385,0.028155,,,,
2557.514641,0.028153,,,,
2555.585897,0.027959,,,,
2553.657153,0.027616,,,,
2551.728409,0.027131,,,,
2549.799665,0.026669,,,,
2547.870921,0.026543,,,,
2545.942177,0.02672,,,,
2544.013433,0.026855,,,,
2542.084689,0.026777,,,,
2540.155945,0.026619,,,,
2538.227201,0.02651,,,,
2536.298456,0.026422,,,,
2534.369712,0.026309,,,,
2532.440968,0.026201,,,,
2530.512224,0.026127,,,,
2528.58348,0.026055,,,,
2526.654736,0.025953,,,,
2524.725992,0.025818,,,,
2522.797248,0.025727,,,,
2520.868504,0.025721,,,,
2518.93976,0.025644,,,,
2517.011016,0.025408,,,,
2515.082272,0.025106,,,,
2513.153528,0.024858,,,,
2511.224784,0.024783,,,,
2509.296039,0.024792,,,,
2507.367295,0.024595,,,,
2505.438551,0.024206,,,,
2503.509807,0.023936,,,,
2501.581063,0.023851,,,,
2499.652319,0.023793,,,,
2497.723575,0.023701,,,,
2495.794831,0.023556,,,,
2493.866087,0.023319,,,,
2491.937343,0.023003,,,,
2490.008599,0.022698,,,,
2488.079855,0.022497,,,,
2486.151111,0.022356,,,,
2484.222366,0.022191,,,,
2482.293622,0.022076,,,,
2480.364878,0.022044,,,,
2478.436134,0.021953,,,,
2476.50739,0.021787,,,,
2474.578646,0.021679,,,,
2472.649902,0.021572,,,,
2470.721158,0.021342,,,,
2468.792414,0.021137,,,,
2466.86367,0.021069,,,,
2464.934926,0.020986,,,,
2463.006182,0.020766,,,,
2461.077438,0.020495,,,,
2459.148694,0.02042,,,,
2457.219949,0.020545,,,,
2455.291205,0.020556,,,,
2453.362461,0.020396,,,,
2451.433717,0.020266,,,,
2449.504973,0.020158,,,,
2447.576229,0.01991,,,,
2445.647485,0.019535,,,,
2443.718741,0.019267,,,,
2441.789997,0.019283,,,,
2439.861253,0.019322,,,,
2437.932509,0.019069,,,,
2436.003765,0.018783,,,,
2434.075021,0.018689,,,,
2432.146277,0.018589,,,,
2430.217532,0.018436,,,,
2428.288788,0.018289,,,,
2426.360044,0.018135,,,,
2424.4313,0.018064,,,,
2422.502556,0.018076,,,,
2420.573812,0.017978,,,,
2418.645068,0.017701,,,,
2416.716324,0.017416,,,,
2414.78758,0.017331,,,,
2412.858836,0.017443,,,,
2410.930092,0.017539,,,,
2409.001348,0.017465,,,,
2407.072604,0.017237,,,,
2405.143859,0.016986,,,,
2403.215115,0.016889,,,,
2401.286371,0.016908,,,,
2399.357627,0.016805,,,,
2397.428883,0.016612,,,,
2395.500139,0.016567,,,,
2393.571395,0.01664,,,,
2391.642651,0.016661,,,,
2389.713907,0.016624,,,,
2387.785163,0.016625,,,,
2385.856419,0.016622,,,,
2383.927675,0.016502,,,,
2381.998931,0.016413,,,,
2380.070187,0.016526,,,,
2378.141442,0.01674,,,,
2376.212698,0.016912,,,,
2374.283954,0.017004,,,,
2372.35521,0.017077,,,,
2370.426466,0.017198,,,,
2368.497722,0.017363,,,,
2366.568978,0.017546,,,,
2364.640234,0.017739,,,,
2362.71149,0.017896,,,,
2360.782746,0.01797,,,,
2358.854002,0.017978,,,,
2356.925258,0.017872,,,,
2354.996514,0.017602,,,,
2353.06777,0.017273,,,,
2351.139025,0.016969,,,,
2349.210281,0.016759,,,,
2347.281537,0.016722,,,,
2345.352793,0.016837,,,,
2343.424049,0.017029,,,,
2341.495305,0.017192,,,,
2339.566561,0.017254,,,,
2337.637817,0.017243,,,,
2335.709073,0.017194,,,,
2333.780329,0.01712,,,,
2331.851585,0.01703,,,,
2329.922841,0.016974,,,,
2327.994097,0.017153,,,,
2326.065352,0.017624,,,,
2324.136608,0.017877,,,,
2322.207864,0.017401,,,,
2320.27912,0.01657,,,,
2318.350376,0.016038,,,,
2316.421632,0.015756,,,,
2314.492888,0.015374,,,,
2312.564144,0.014932,,,,
2310.6354,0.014633,,,,
2308.706656,0.014444,,,,
2306.777912,0.014278,,,,
2304.849168,0.01411,,,,
2302.920424,0.013918,,,,
2300.99168,0.013682,,,,
2299.062935,0.013442,,,,
2297.134191,0.013336,,,,
2295.205447,0.013383,,,,
2293.276703,0.013427,,,,
2291.347959,0.013338,,,,
2289.419215,0.013165,,,,
2287.490471,0.012958,,,,
2285.561727,0.012512,,,,
2283.632983,0.011906,,,,
2281.704239,0.011601,,,,
2279.775495,0.011586,,,,
2277.846751,0.011435,,,,
2275.918007,0.010971,,,,
2273.989262,0.010487,,,,
2272.060518,0.010398,,,,
2270.131774,0.010549,,,,
2268.20303,0.010462,,,,
2266.274286,0.010081,,,,
2264.345542,0.009613,,,,
2262.416798,0.009334,,,,
2260.488054,0.009447,,,,
2258.55931,0.009608,,,,
2256.630566,0.009323,,,,
2254.701822,0.008705,,,,
2252.773078,0.008292,,,,
2250.844334,0.008319,,,,
2248.91559,0.008467,,,,
2246.986845,0.008406,,,,
2245.058101,0.008266,,,,
2243.129357,0.008258,,,,
2241.200613,0.008322,,,,
2239.271869,0.008314,,,,
2237.343125,0.008106,,,,
2235.414381,0.007788,,,,
2233.485637,0.007546,,,,
2231.556893,0.007278,,,,
2229.628149,0.00706,,,,
2227.699405,0.007099,,,,
2225.770661,0.007073,,,,
2223.841917,0.006709,,,,
2221.913173,0.006388,,,,
2219.984428,0.006319,,,,
2218.055684,0.006308,,,,
2216.12694,0.006349,,,,
2214.198196,0.006235,,,,
2212.269452,0.005769,,,,
2210.340708,0.005442,,,,
2208.411964,0.005574,,,,
2206.48322,0.005846,,,,
2204.554476,0.005871,,,,
2202.625732,0.005669,,,,
2200.696988,0.005629,,,,
2198.768244,0.005756,,,,
2196.8395,0.005715,,,,
2194.910755,0.005555,,,,
2192.982011,0.005339,,,,
2191.053267,0.005092,,,,
2189.124523,0.005093,,,,
2187.195779,0.005188,,,,
2185.267035,0.005108,,,,
2183.338291,0.00514,,,,
2181.409547,0.005345,,,,
2179.480803,0.005351,,,,
2177.552059,0.005063,,,,
2175.623315,0.004726,,,,
2173.694571,0.004426,,,,
2171.765827,0.004028,,,,
2169.837083,0.003636,,,,
2167.908338,0.003624,,,,
2165.979594,0.004033,,,,
2164.05085,0.004194,,,,
2162.122106,0.0034,,,,
2160.193362,0.002063,,,,
2158.264618,0.001291,,,,
2156.335874,0.001396,,,,
2154.40713,0.001891,,,,
2152.478386,0.002548,,,,
2150.549642,0.003296,,,,
2148.620898,0.003728,,,,
2146.692154,0.003692,,,,
2144.76341,0.003685,,,,
2142.834666,0.004122,,,,
2140.905921,0.00478,,,,
2138.977177,0.005079,,,,
2137.048433,0.004877,,,,
2135.119689,0.004622,,,,
2133.190945,0.004797,,,,
2131.262201,0.005583,,,,
2129.333457,0.006532,,,,
2127.404713,0.007052,,,,
2125.475969,0.007244,,,,
2123.547225,0.007475,,,,
2121.618481,0.007766,,,,
2119.689737,0.007911,,,,
2117.760993,0.007828,,,,
2115.832248,0.00767,,,,
2113.903504,0.007481,,,,
2111.97476,0.007212,,,,
2110.046016,0.006985,,,,
2108.117272,0.006909,,,,
2106.188528,0.007004,,,,
2104.259784,0.007282,,,,
2102.33104,0.007676,,,,
2100.402296,0.007869,,,,
2098.473552,0.007527,,,,
2096.544808,0.00697,,,,
2094.616064,0.006845,,,,
2092.68732,0.007175,,,,
2090.758576,0.007554,,,,
2088.829831,0.007805,,,,
2086.901087,0.007861,,,,
2084.972343,0.007537,,,,
2083.043599,0.006959,,,,
2081.114855,0.006704,,,,
2079.186111,0.006879,,,,
2077.257367,0.006853,,,,
2075.328623,0.00629,,,,
2073.399879,0.005629,,,,
2071.471135,0.005394,,,,
2069.542391,0.005535,,,,
2067.613647,0.005651,,,,
2065.684903,0.005702,,,,
2063.756158,0.005777,,,,
2061.827414,0.005525,,,,
2059.89867,0.004952,,,,
2057.969926,0.004674,,,,
2056.041182,0.004808,,,,
2054.112438,0.005086,,,,
2052.183694,0.005434,,,,
2050.25495,0.005467,,,,
2048.326206,0.004746,,,,
2046.397462,0.003716,,,,
2044.468718,0.00295,,,,
2042.539974,0.002474,,,,
2040.61123,0.002345,,,,
2038.682486,0.002289,,,,
2036.753741,0.001907,,,,
2034.824997,0.001352,,,,
2032.896253,0.0009,,,,
2030.967509,0.00084,,,,
2029.038765,0.001133,,,,
2027.110021,0.001384,,,,
2025.181277,0.001601,,,,
2023.252533,0.001706,,,,
2021.323789,0.00159,,,,
2019.395045,0.001634,,,,
2017.466301,0.001905,,,,
2015.537557,0.002029,,,,
2013.608813,0.001957,,,,
2011.680069,0.002049,,,,
2009.751324,0.002409,,,,
2007.82258,0.002638,,,,
2005.893836,0.002708,,,,
2003.965092,0.002946,,,,
2002.036348,0.003121,,,,
2000.107604,0.002821,,,,
1998.17886,0.002401,,,,
1996.250116,0.002574,,,,
1994.321372,0.003117,,,,
1992.392628,0.003329,,,,
1990.463884,0.003277,,,,
1988.53514,0.003321,,,,
1986.606396,0.003319,,,,
1984.677651,0.002945,,,,
1982.748907,0.002452,,,,
1980.820163,0.002265,,,,
1978.891419,0.002242,,,,
1976.962675,0.002232,,,,
1975.033931,0.002188,,,,
1973.105187,0.001806,,,,
1971.176443,0.001211,,,,
1969.247699,0.00106,,,,
1967.318955,0.001524,,,,
1965.390211,0.002079,,,,
1963.461467,0.00232,,,,
1961.532723,0.002465,,,,
1959.603979,0.002867,,,,
1957.675234,0.003359,,,,
1955.74649,0.003726,,,,
1953.817746,0.004075,,,,
1951.889002,0.004407,,,,
1949.960258,0.004694,,,,
1948.031514,0.004929,,,,
1946.10277,0.004982,,,,
1944.174026,0.004901,,,,
1942.245282,0.004859,,,,
1940.316538,0.005016,,,,
1938.387794,0.005578,,,,
1936.45905,0.006213,,,,
1934.530306,0.00633,,,,
1932.601562,0.006151,,,,
1930.672817,0.006247,,,,
1928.744073,0.006689,,,,
1926.815329,0.007176,,,,
1924.886585,0.007368,,,,
1922.957841,0.007268,,,,
1921.029097,0.007332,,,,
1919.100353,0.007711,,,,
1917.171609,0.00802,,,,
1915.242865,0.008086,,,,
1913.314121,0.008008,,,,
1911.385377,0.007875,,,,
1909.456633,0.007851,,,,
1907.527889,0.008046,,,,
1905.599144,0.008341,,,,
1903.6704,0.008523,,,,
1901.741656,0.008558,,,,
1899.812912,0.008524,,,,
1897.884168,0.008583,,,,
1895.955424,0.008853,,,,
1894.02668,0.00919,,,,
1892.097936,0.009523,,,,
1890.169192,0.009834,,,,
1888.240448,0.009958,,,,
1886.311704,0.00996,,,,
1884.38296,0.010157,,,,
1882.454216,0.01057,,,,
1880.525472,0.010922,,,,
1878.596727,0.011166,,,,
1876.667983,0.011461,,,,
1874.739239,0.011834,,,,
1872.810495,0.012178,,,,
1870.881751,0.012444,,,,
1868.953007,0.012699,,,,
1867.024263,0.013024,,,,
1865.095519,0.013425,,,,
1863.166775,0.013842,,,,
1861.238031,0.014257,,,,
1859.309287,0.01467,,,,
1857.380543,0.015038,,,,
1855.451799,0.015306,,,,
1853.523055,0.015493,,,,
1851.59431,0.015716,,,,
1849.665566,0.015986,,,,
1847.736822,0.016276,,,,
1845.808078,0.016682,,,,
1843.879334,0.017167,,,,
1841.95059,0.017471,,,,
1840.021846,0.017436,,,,
1838.093102,0.017193,,,,
1836.164358,0.016843,,,,
1834.235614,0.016384,,,,
1832.30687,0.015979,,,,
1830.378126,0.015745,,,,
1828.449382,0.015578,,,,
1826.520637,0.015427,,,,
1824.591893,0.01533,,,,
1822.663149,0.015282,,,,
1820.734405,0.01528,,,,
1818.805661,0.015329,,,,
1816.876917,0.015508,,,,
1814.948173,0.015926,,,,
1813.019429,0.0165,,,,
1811.090685,0.017044,,,,
1809.161941,0.01748,,,,
1807.233197,0.017894,,,,
1805.304453,0.018358,,,,
1803.375709,0.018902,,,,
1801.446965,0.019608,,,,
1799.51822,0.020514,,,,
1797.589476,0.021582,,,,
1795.660732,0.022834,,,,
1793.731988,0.024465,,,,
1791.803244,0.026773,,,,
1789.8745,0.030017,,,,
1787.945756,0.034617,,,,
1786.017012,0.041015,,,,
1784.088268,0.048693,,,,
1782.159524,0.055934,,,,
1780.23078,0.061013,,,,
1778.302036,0.063357,,,,
1776.373292,0.063653,,,,
1774.444547,0.062843,,,,
1772.515803,0.061302,,,,
1770.587059,0.059159,,,,
1768.658315,0.056662,,,,
1766.729571,0.054078,,,,
1764.800827,0.05174,,,,
1762.872083,0.04997,,,,
1760.943339,0.048896,,,,
1759.014595,0.048461,,,,
1757.085851,0.048589,,,,
1755.157107,0.04929,,,,
1753.228363,0.050699,,,,
1751.299619,0.052892,,,,
1749.370875,0.055696,,,,
1747.44213,0.058925,,,,
1745.513386,0.062567,,,,
1743.584642,0.066607,,,,
1741.655898,0.071021,,,,
1739.727154,0.075744,,,,
1737.79841,0.080518,,,,
1735.869666,0.085456,,,,
1733.940922,0.090907,,,,
1732.012178,0.096423,,,,
1730.083434,0.101702,,,,
1728.15469,0.107105,,,,
1726.225946,0.112589,,,,
1724.297202,0.117885,,,,
1722.368458,0.122814,,,,
1720.439713,0.127385,,,,
1718.510969,0.13204,,,,
1716.582225,0.136821,,,,
1714.653481,0.141194,,,,
1712.724737,0.145079,,,,
1710.795993,0.148762,,,,
1708.867249,0.152474,,,,
1706.938505,0.156429,,,,
1705.009761,0.160566,,,,
1703.081017,0.164818,,,,
1701.152273,0.169702,,,,
1699.223529,0.175086,,,,
1697.294785,0.180036,,,,
1695.36604,0.184069,,,,
1693.437296,0.186081,,,,
1691.508552,0.185223,,,,
1689.579808,0.18175,,,,
1687.651064,0.176329,,,,
1685.72232,0.169808,,,,
1683.793576,0.162849,,,,
1681.864832,0.156154,,,,
1679.936088,0.150269,,,,
1678.007344,0.145369,,,,
1676.0786,0.141311,,,,
1674.149856,0.137852,,,,
1672.221112,0.134859,,,,
1670.292368,0.132166,,,,
1668.363623,0.129622,,,,
1666.434879,0.127251,,,,
1664.506135,0.12517,,,,
1662.577391,0.123371,,,,
1660.648647,0.121728,,,,
1658.719903,0.120197,,,,
1656.791159,0.118758,,,,
1654.862415,0.11736,,,,
1652.933671,0.115892,,,,
1651.004927,0.114202,,,,
1649.076183,0.112322,,,,
1647.147439,0.110343,,,,
1645.218695,0.108283,,,,
1643.289951,0.10627,,,,
1641.361206,0.104553,,,,
1639.432462,0.103161,,,,
1637.503718,0.101867,,,,
1635.574974,0.100452,,,,
1633.64623,0.098785,,,,
1631.717486,0.096937,,,,
1629.788742,0.095082,,,,
1627.859998,0.093298,,,,
1625.931254,0.091585,,,,
1624.00251,0.089965,,,,
1622.073766,0.088482,,,,
1620.145022,0.087196,,,,
1618.216278,0.086194,,,,
1616.287533,0.085521,,,,
1614.358789,0.085141,,,,
1612.430045,0.084998,,,,
1610.501301,0.084976,,,,
1608.572557,0.084809,,,,
1606.643813,0.08418,,,,
1604.715069,0.082978,,,,
1602.786325,0.08141,,,,
1600.857581,0.079737,,,,
1598.928837,0.077993,,,,
1597.000093,0.076078,,,,
1595.071349,0.074026,,,,
1593.142605,0.072017,,,,
1591.213861,0.070227,,,,
1589.285116,0.068741,,,,
1587.356372,0.067556,,,,
1585.427628,0.066596,,,,
1583.498884,0.065708,,,,
1581.57014,0.064734,,,,
1579.641396,0.063736,,,,
1577.712652,0.0629,,,,
1575.783908,0.062209,,,,
1573.855164,0.061536,,,,
1571.92642,0.060947,,,,
1569.997676,0.060513,,,,
1568.068932,0.060166,,,,
1566.140188,0.059906,,,,
1564.211443,0.05974,,,,
1562.282699,0.059613,,,,
1560.353955,0.059515,,,,
1558.425211,0.05939,,,,
1556.496467,0.059183,,,,
1554.567723,0.058946,,,,
1552.638979,0.058682,,,,
1550.710235,0.058354,,,,
1548.781491,0.057978,,,,
1546.852747,0.057587,,,,
1544.924003,0.057152,,,,
1542.995259,0.056618,,,,
1541.066515,0.055976,,,,
1539.137771,0.055214,,,,
1537.209026,0.054388,,,,
1535.280282,0.053595,,,,
1533.351538,0.05279,,,,
1531.422794,0.051931,,,,
1529.49405,0.051146,,,,
1527.565306,0.050546,,,,
1525.636562,0.050083,,,,
1523.707818,0.049721,,,,
1521.779074,0.049541,,,,
1519.85033,0.04963,,,,
1517.921586,0.05007,,,,
1515.992842,0.05094,,,,
1514.064098,0.052119,,,,
1512.135354,0.05323,,,,
1510.206609,0.053897,,,,
1508.277865,0.054019,,,,
1506.349121,0.053741,,,,
1504.420377,0.053429,,,,
1502.491633,0.053546,,,,
1500.562889,0.054245,,,,
1498.634145,0.055187,,,,
1496.705401,0.055798,,,,
1494.776657,0.055851,,,,
1492.847913,0.055623,,,,
1490.919169,0.055422,,,,
1488.990425,0.055384,,,,
1487.061681,0.055705,,,,
1485.132936,0.056746,,,,
1483.204192,0.058894,,,,
1481.275448,0.062411,,,,
1479.346704,0.067284,,,,
1477.41796,0.073189,,,,
1475.489216,0.079593,,,,
1473.560472,0.085976,,,,
1471.631728,0.091861,,,,
1469.702984,0.096815,,,,
1467.77424,0.100771,,,,
1465.845496,0.103957,,,,
1463.916752,0.106649,,,,
1461.988008,0.108991,,,,
1460.059264,0.110861,,,,
1458.130519,0.111929,,,,
1456.201775,0.111902,,,,
1454.273031,0.111137,,,,
1452.344287,0.11035,,,,
1450.415543,0.109798,,,,
1448.486799,0.109313,,,,
1446.558055,0.108469,,,,
1444.629311,0.106721,,,,
1442.700567,0.103813,,,,
1440.771823,0.100068,,,,
1438.843079,0.096059,,,,
1436.914335,0.092135,,,,
1434.985591,0.088537,,,,
1433.056847,0.085475,,,,
1431.128102,0.082982,,,,
1429.199358,0.081078,,,,
1427.270614,0.079865,,,,
1425.34187,0.079384,,,,
1423.413126,0.079589,,,,
1421.484382,0.080373,,,,
1419.555638,0.081594,,,,
1417.626894,0.083041,,,,
1415.69815,0.084533,,,,
1413.769406,0.086033,,,,
1411.840662,0.087439,,,,
1409.911918,0.088567,,,,
1407.983174,0.089299,,,,
1406.054429,0.089653,,,,
1404.125685,0.089769,,,,
1402.196941,0.089889,,,,
1400.268197,0.090394,,,,
1398.339453,0.091729,,,,
1396.410709,0.094303,,,,
1394.481965,0.098349,,,,
1392.553221,0.103632,,,,
1390.624477,0.109259,,,,
1388.695733,0.113827,,,,
1386.766989,0.115906,,,,
1384.838245,0.115013,,,,
1382.909501,0.111998,,,,
1380.980757,0.108207,,,,
1379.052012,0.104565,,,,
1377.123268,0.10141,,,,
1375.194524,0.098878,,,,
1373.26578,0.097177,,,,
1371.337036,0.096401,,,,
1369.408292,0.096328,,,,
1367.479548,0.096548,,,,
1365.550804,0.096567,,,,
1363.62206,0.095837,,,,
1361.693316,0.094023,,,,
1359.764572,0.091429,,,,
1357.835828,0.088797,,,,
1355.907084,0.086638,,,,
1353.97834,0.085053,,,,
1352.049595,0.083932,,,,
1350.120851,0.083091,,,,
1348.192107,0.082466,,,,
1346.263363,0.082049,,,,
1344.334619,0.081691,,,,
1342.405875,0.081297,,,,
1340.477131,0.080963,,,,
1338.548387,0.080731,,,,
1336.619643,0.080542,,,,
1334.690899,0.080386,,,,
1332.762155,0.080255,,,,
1330.833411,0.080126,,,,
1328.904667,0.080045,,,,
1326.975922,0.080116,,,,
1325.047178,0.080378,,,,
1323.118434,0.080811,,,,
1321.18969,0.081493,,,,
1319.260946,0.082536,,,,
1317.332202,0.083903,,,,
1315.403458,0.085474,,,,
1313.474714,0.087155,,,,
1311.54597,0.088913,,,,
1309.617226,0.090754,,,,
1307.688482,0.092634,,,,
1305.759738,0.094442,,,,
1303.830994,0.096163,,,,
1301.90225,0.097934,,,,
1299.973505,0.099835,,,,
1298.044761,0.101789,,,,
1296.116017,0.103743,,,,
1294.187273,0.105802,,,,
1292.258529,0.108107,,,,
1290.329785,0.110707,,,,
1288.401041,0.113599,,,,
1286.472297,0.116759,,,,
1284.543553,0.120123,,,,
1282.614809,0.123549,,,,
1280.686065,0.126838,,,,
1278.757321,0.129818,,,,
1276.828577,0.132361,,,,
1274.899832,0.134462,,,,
1272.971088,0.136299,,,,
1271.042344,0.13809,,,,
1269.1136,0.139977,,,,
1267.184856,0.142018,,,,
1265.256112,0.144207,,,,
1263.327368,0.146553,,,,
1261.398624,0.149039,,,,
1259.46988,0.151553,,,,
1257.541136,0.154042,,,,
1255.612392,0.156452,,,,
1253.683648,0.158674,,,,
1251.754904,0.160732,,,,
1249.82616,0.162707,,,,
1247.897415,0.164626,,,,
1245.968671,0.166544,,,,
1244.039927,0.168487,,,,
1242.111183,0.170316,,,,
1240.182439,0.171839,,,,
1238.253695,0.172938,,,,
1236.324951,0.173475,,,,
1234.396207,0.173324,,,,
1232.467463,0.172427,,,,
1230.538719,0.170774,,,,
1228.609975,0.168605,,,,
1226.681231,0.166244,,,,
1224.752487,0.163696,,,,
1222.823743,0.160725,,,,
1220.894998,0.157225,,,,
1218.966254,0.153429,,,,
1217.03751,0.149856,,,,
1215.108766,0.147058,,,,
1213.180022,0.145297,,,,
1211.251278,0.144295,,,,
1209.322534,0.143349,,,,
1207.39379,0.141961,,,,
1205.465046,0.140316,,,,
1203.536302,0.139013,,,,
1201.607558,0.138521,,,,
1199.678814,0.138911,,,,
1197.75007,0.139992,,,,
1195.821325,0.1416,,,,
1193.892581,0.143672,,,,
1191.963837,0.146051,,,,
1190.035093,0.148435,,,,
1188.106349,0.150679,,,,
1186.177605,0.152831,,,,
1184.248861,0.154796,,,,
1182.320117,0.156426,,,,
1180.391373,0.157733,,,,
1178.462629,0.158729,,,,
1176.533885,0.159331,,,,
1174.605141,0.159488,,,,
1172.676397,0.159212,,,,
1170.747653,0.158606,,,,
1168.818908,0.157952,,,,
1166.890164,0.157629,,,,
1164.96142,0.157783,,,,
1163.032676,0.15814,,,,
1161.103932,0.158341,,,,
1159.175188,0.15835,,,,
1157.246444,0.15826,,,,
1155.3177,0.158028,,,,
1153.388956,0.157594,,,,
1151.460212,0.156811,,,,
1149.531468,0.155453,,,,
1147.602724,0.153527,,,,
1145.67398,0.151305,,,,
1143.745236,0.149122,,,,
1141.816491,0.147205,,,,
1139.887747,0.14555,,,,
1137.959003,0.144079,,,,
1136.030259,0.142752,,,,
1134.101515,0.141537,,,,
1132.172771,0.140457,,,,
1130.244027,0.139497,,,,
1128.315283,0.138479,,,,
1126.386539,0.137171,,,,
1124.457795,0.135466,,,,
1122.529051,0.133553,,,,
1120.600307,0.131743,,,,
1118.671563,0.130236,,,,
1116.742818,0.12919,,,,
1114.814074,0.128603,,,,
1112.88533,0.128274,,,,
1110.956586,0.128083,,,,
1109.027842,0.127908,,,,
1107.099098,0.127454,,,,
1105.170354,0.126435,,,,
1103.24161,0.124825,,,,
1101.312866,0.122979,,,,
1099.384122,0.121498,,,,
1097.455378,0.120851,,,,
1095.526634,0.121178,,,,
1093.59789,0.122322,,,,
1091.669146,0.123864,,,,
1089.740401,0.125329,,,,
1087.811657,0.12648,,,,
1085.882913,0.127373,,,,
1083.954169,0.12799,,,,
1082.025425,0.12792,,,,
1080.096681,0.126828,,,,
1078.167937,0.125035,,,,
1076.239193,0.123121,,,,
1074.310449,0.121281,,,,
1072.381705,0.119398,,,,
1070.452961,0.117576,,,,
1068.524217,0.116183,,,,
1066.595473,0.115425,,,,
1064.666728,0.115195,,,,
1062.737984,0.115288,,,,
1060.80924,0.115711,,,,
1058.880496,0.116636,,,,
1056.951752,0.118113,,,,
1055.023008,0.120209,,,,
1053.094264,0.123126,,,,
1051.16552,0.126904,,,,
1049.236776,0.131309,,,,
1047.308032,0.136033,,,,
1045.379288,0.140833,,,,
1043.450544,0.145519,,,,
1041.5218,0.150016,,,,
1039.593056,0.154454,,,,
1037.664311,0.159065,,,,
1035.735567,0.163938,,,,
1033.806823,0.169019,,,,
1031.878079,0.174317,,,,
1029.949335,0.179915,,,,
1028.020591,0.185898,,,,
1026.091847,0.192402,,,,
1024.163103,0.199442,,,,
1022.234359,0.206694,,,,
1020.305615,0.213599,,,,
1018.376871,0.219633,,,,
1016.448127,0.224513,,,,
1014.519383,0.228253,,,,
1012.590639,0.231116,,,,
1010.661894,0.233539,,,,
1008.73315,0.235874,,,,
1006.804406,0.23824,,,,
1004.875662,0.240648,,,,
1002.946918,0.242874,,,,
1001.018174,0.244486,,,,
999.08943,0.24537,,,,
997.160686,0.245735,,,,
995.231942,0.245824,,,,
993.303198,0.245951,,,,
991.374454,0.246345,,,,
989.44571,0.246978,,,,
987.516966,0.247774,,,,
985.588221,0.248748,,,,
983.659477,0.249905,,,,
981.730733,0.251136,,,,
979.801989,0.25225,,,,
977.873245,0.253027,,,,
975.944501,0.253359,,,,
974.015757,0.253481,,,,
972.087013,0.253795,,,,
970.158269,0.254408,,,,
968.229525,0.254965,,,,
966.300781,0.255109,,,,
964.372037,0.25493,,,,
962.443293,0.254657,,,,
960.514549,0.254339,,,,
958.585804,0.254081,,,,
956.65706,0.254211,,,,
954.728316,0.255225,,,,
952.799572,0.257756,,,,
950.870828,0.261993,,,,
948.942084,0.266716,,,,
947.01334,0.269441,,,,
945.084596,0.268287,,,,
943.155852,0.263699,,,,
941.227108,0.25776,,,,
939.298364,0.252253,,,,
937.36962,0.247971,,,,
935.440876,0.245077,,,,
933.512132,0.243393,,,,
931.583387,0.24278,,,,
929.654643,0.243219,,,,
927.725899,0.244297,,,,
925.797155,0.245203,,,,
923.868411,0.245235,,,,
921.939667,0.243841,,,,
920.010923,0.240629,,,,
918.082179,0.2358,,,,
916.153435,0.230251,,,,
914.224691,0.225053,,,,
912.295947,0.221041,,,,
910.367203,0.218756,,,,
908.438459,0.218081,,,,
906.509714,0.217703,,,,
904.58097,0.215979,,,,
902.652226,0.212889,,,,
900.723482,0.209595,,,,
898.794738,0.206413,,,,
896.865994,0.203005,,,,
894.93725,0.199593,,,,
893.008506,0.196845,,,,
891.079762,0.195218,,,,
889.151018,0.19464,,,,
887.222274,0.194613,,,,
885.29353,0.19471,,,,
883.364786,0.194805,,,,
881.436042,0.194689,,,,
879.507297,0.194029,,,,
877.578553,0.192704,,,,
875.649809,0.190794,,,,
873.721065,0.188384,,,,
871.792321,0.185615,,,,
869.863577,0.182866,,,,
867.934833,0.18046,,,,
866.006089,0.178349,,,,
864.077345,0.176401,,,,
862.148601,0.174794,,,,
860.219857,0.173951,,,,
858.291113,0.174121,,,,
856.362369,0.175063,,,,
854.433625,0.17579,,,,
852.50488,0.175026,,,,
850.576136,0.172738,,,,
848.647392,0.17018,,,,
846.718648,0.168287,,,,
844.789904,0.167109,,,,
842.86116,0.166341,,,,
840.932416,0.165832,,,,
839.003672,0.165666,,,,
837.074928,0.165917,,,,
835.146184,0.166516,,,,
833.21744,0.167277,,,,
831.288696,0.167909,,,,
829.359952,0.168077,,,,
827.431207,0.167585,,,,
825.502463,0.166371,,,,
823.573719,0.164314,,,,
821.644975,0.16156,,,,
819.716231,0.158889,,,,
817.787487,0.157192,,,,
815.858743,0.156902,,,,
813.929999,0.157855,,,,
812.001255,0.159227,,,,
810.072511,0.160022,,,,
808.143767,0.159718,,,,
806.215023,0.158159,,,,
804.286279,0.155339,,,,
802.357535,0.151717,,,,
800.42879,0.148151,,,,
798.500046,0.145312,,,,
796.571302,0.143368,,,,
794.642558,0.141865,,,,
792.713814,0.140209,,,,
790.78507,0.138503,,,,
788.856326,0.137239,,,,
786.927582,0.136617,,,,
784.998838,0.136611,,,,
783.070094,0.136978,,,,
781.14135,0.137215,,,,
779.212606,0.136913,,,,
777.283862,0.136072,,,,
775.355117,0.13514,,,,
773.426373,0.134669,,,,
771.497629,0.134877,,,,
769.568885,0.135538,,,,
767.640141,0.136108,,,,
765.711397,0.136251,,,,
763.782653,0.136351,,,,
761.853909,0.136872,,,,
759.925165,0.137664,,,,
757.996421,0.138439,,,,
756.067677,0.139139,,,,
754.138933,0.139699,,,,
752.210189,0.140105,,,,
750.281445,0.140614,,,,
748.3527,0.140985,,,,
746.423956,0.140077,,,,
744.495212,0.137502,,,,
742.566468,0.134154,,,,
740.637724,0.130741,,,,
738.70898,0.12741,,,,
736.780236,0.124264,,,,
734.851492,0.121562,,,,
732.922748,0.119527,,,,
730.994004,0.118055,,,,
729.06526,0.116889,,,,
727.136516,0.115969,,,,
725.207772,0.115388,,,,
723.279028,0.115069,,,,
721.350283,0.115027,,,,
719.421539,0.115433,,,,
717.492795,0.116131,,,,
715.564051,0.116781,,,,
713.635307,0.117084,,,,
711.706563,0.116903,,,,
709.777819,0.116424,,,,
707.849075,0.115987,,,,
705.920331,0.115878,,,,
703.991587,0.116188,,,,
702.062843,0.117026,,,,
700.134099,0.11886,,,,
698.205355,0.12238,,,,
696.27661,0.127949,,,,
694.347866,0.134881,,,,
692.419122,0.14127,,,,
690.490378,0.144925,,,,
688.561634,0.145181,,,,
686.63289,0.143819,,,,
684.704146,0.143385,,,,
682.775402,0.144881,,,,
680.846658,0.147837,,,,
678.917914,0.15232,,,,
676.98917,0.15982,,,,
675.060426,0.172432,,,,
673.131682,0.191527,,,,
671.202938,0.215747,,,,
669.274193,0.2398,,,,
667.345449,0.25574,,,,
665.416705,0.258361,,,,
663.487961,0.249941,,,,
661.559217,0.236408,,,,
659.630473,0.222354,,,,
657.701729,0.210029,,,,
655.772985,0.199996,,,,
653.844241,0.191875,,,,
651.915497,0.18503,,,,
649.986753,0.179066,,,,
648.058009,0.173681,,,,
646.129265,0.16863,,,,
644.200521,0.163999,,,,
642.271776,0.159886,,,,
640.343032,0.156235,,,,
638.414288,0.153151,,,,
636.485544,0.150644,,,,
634.5568,0.148426,,,,
632.628056,0.14638,,,,
630.699312,0.144718,,,,
628.770568,0.143329,,,,
626.841824,0.141556,,,,
624.91308,0.139399,,,,
622.984336,0.137692,,,,
621.055592,0.136595,,,,
619.126848,0.135542,,,,
617.198103,0.134385,,,,
615.269359,0.133574,,,,
613.340615,0.133435,,,,
611.411871,0.133445,,,,
609.483127,0.132934,,,,
607.554383,0.132073,,,,
605.625639,0.131201,,,,
603.696895,0.130325,,,,
601.768151,0.129444,,,,
599.839407,0.128474,,,,
597.910663,0.127514,,,,
595.981919,0.126835,,,,
594.053175,0.12622,,,,
592.124431,0.125377,,,,
590.195686,0.124634,,,,
588.266942,0.124274,,,,
586.338198,0.124213,,,,
584.409454,0.124369,,,,
582.48071,0.124403,,,,
580.551966,0.124067,,,,
578.623222,0.123592,,,,
576.694478,0.123193,,,,
574.765734,0.123166,,,,
572.83699,0.123556,,,,
570.908246,0.123805,,,,
568.979502,0.123744,,,,
567.050758,0.123551,,,,
565.122013,0.1231,,,,
563.193269,0.122482,,,,
561.264525,0.121925,,,,
559.335781,0.121478,,,,
557.407037,0.121404,,,,
555.478293,0.121752,,,,
553.549549,0.122043,,,,
551.620805,0.122072,,,,
549.692061,0.122345,,,,
547.763317,0.123899,,,,
545.834573,0.127627,,,,
543.905829,0.13369,,,,
541.977085,0.142022,,,,
540.048341,0.152791,,,,
538.119596,0.165618,,,,
536.190852,0.178678,,,,
534.262108,0.189638,,,,
532.333364,0.197452,,,,
530.40462,0.202254,,,,
528.475876,0.204457,,,,
526.547132,0.204404,,,,
524.618388,0.20224,,,,
522.689644,0.198452,,,,
520.7609,0.194001,,,,
518.832156,0.189645,,,,
516.903412,0.185781,,,,
514.974668,0.182675,,,,
513.045924,0.180501,,,,
511.117179,0.179473,,,,
509.188435,0.180047,,,,
507.259691,0.182823,,,,
505.330947,0.187895,,,,
503.402203,0.194012,,,,
501.473459,0.199167,,,,
499.544715,0.202209,,,,
497.615971,0.20356,,,,
495.687227,0.204754,,,,
493.758483,0.206696,,,,
491.829739,0.209123,,,,
489.900995,0.212233,,,,
487.972251,0.216664,,,,
486.043506,0.222521,,,,
484.114762,0.229732,,,,
482.186018,0.238046,,,,
480.257274,0.246982,,,,
478.32853,0.256562,,,,
476.399786,0.267144,,,,
474.471042,0.279239,,,,
472.542298,0.293569,,,,
470.613554,0.310086,,,,
468.68481,0.32892,,,,
466.756066,0.350329,,,,
464.827322,0.370524,,,,
462.898578,0.381751,,,,
460.969834,0.379799,,,,
459.041089,0.370229,,,,
457.112345,0.364351,,,,
455.183601,0.369221,,,,
453.254857,0.384015,,,,
451.326113,0.40404,,,,
449.397369,0.423185,,,,
447.468625,0.435325,,,,
445.539881,0.438876,,,,
443.611137,0.439812,,,,
441.682393,0.446181,,,,
439.753649,0.458334,,,,
437.824905,0.469191,,,,
435.896161,0.473193,,,,
433.967417,0.467907,,,,
432.038672,0.452295,,,,
430.109928,0.433073,,,,
428.181184,0.425221,,,,
426.25244,0.436939,,,,
424.323696,0.460811,,,,
422.394952,0.483852,,,,
420.466208,0.500615,,,,
418.537464,0.512478,,,,
416.60872,0.520638,,,,
414.679976,0.522702,,,,
412.751232,0.513972,,,,
410.822488,0.49571,,,,
408.893744,0.474398,,,,
406.964999,0.449937,,,,
405.036255,0.419663,,,,
403.107511,0.387436,,,,
401.178767,0.359536,,,,
399.250023,0.344054,,,,
