3996.35772,-0.047931
3994.428976,-0.048161
3992.500232,-0.048272
3990.571488,-0.04831
3988.642744,-0.048296
3986.714,-0.048107
3984.785256,-0.047842
3982.856511,-0.047765
3980.927767,-0.047885
3978.999023,-0.04801
3977.070279,-0.048043
3975.141535,-0.047995
3973.212791,-0.047928
3971.284047,-0.047901
3969.355303,-0.047943
3967.426559,-0.048015
3965.497815,-0.048019
3963.569071,-0.04804
3961.640327,-0.04823
3959.711583,-0.048416
3957.782839,-0.048376
3955.854094,-0.048204
3953.92535,-0.04804
3951.996606,-0.048008
3950.067862,-0.048246
3948.139118,-0.048568
3946.210374,-0.048636
3944.28163,-0.048461
3942.352886,-0.048285
3940.424142,-0.048262
3938.495398,-0.048405
3936.566654,-0.048642
3934.63791,-0.048823
3932.709166,-0.048879
3930.780422,-0.048895
3928.851677,-0.048881
3926.922933,-0.048859
3924.994189,-0.048856
3923.065445,-0.048735
3921.136701,-0.048588
3919.207957,-0.048584
3917.279213,-0.048549
3915.350469,-0.048441
3913.421725,-0.048431
3911.492981,-0.048498
3909.564237,-0.048571
3907.635493,-0.048611
3905.706749,-0.048556
3903.778004,-0.048392
3901.84926,-0.048171
3899.920516,-0.048047
3897.991772,-0.048146
3896.063028,-0.048373
3894.134284,-0.048544
3892.20554,-0.048547
3890.276796,-0.048462
3888.348052,-0.048468
3886.419308,-0.048604
3884.490564,-0.048644
3882.56182,-0.048421
3880.633076,-0.048246
3878.704332,-0.048283
3876.775587,-0.048286
3874.846843,-0.048239
3872.918099,-0.048192
3870.989355,-0.048237
3869.060611,-0.048459
3867.131867,-0.048569
3865.203123,-0.048518
3863.274379,-0.048543
3861.345635,-0.048623
3859.416891,-0.048599
3857.488147,-0.048454
3855.559403,-0.048417
3853.630659,-0.048663
3851.701915,-0.048906
3849.77317,-0.048815
3847.844426,-0.048489
3845.915682,-0.048221
3843.986938,-0.048106
3842.058194,-0.048004
3840.12945,-0.047916
3838.200706,-0.047989
3836.271962,-0.048117
3834.343218,-0.048196
3832.414474,-0.04838
3830.48573,-0.048614
3828.556986,-0.048637
3826.628242,-0.048469
3824.699497,-0.04838
3822.770753,-0.048451
3820.842009,-0.04846
3818.913265,-0.04828
3816.984521,-0.048081
3815.055777,-0.048023
3813.127033,-0.048123
3811.198289,-0.048303
3809.269545,-0.048428
3807.340801,-0.048454
3805.412057,-0.048422
3803.483313,-0.04838
3801.554569,-0.048414
3799.625825,-0.048501
3797.69708,-0.048591
3795.768336,-0.048744
3793.839592,-0.048834
3791.910848,-0.048618
3789.982104,-0.048241
3788.05336,-0.048125
3786.124616,-0.048322
3784.195872,-0.048463
3782.267128,-0.048371
3780.338384,-0.048226
3778.40964,-0.048179
3776.480896,-0.048233
3774.552152,-0.048268
3772.623408,-0.048231
3770.694663,-0.04828
3768.765919,-0.048408
3766.837175,-0.048447
3764.908431,-0.048399
3762.979687,-0.048349
3761.050943,-0.048314
3759.122199,-0.048207
3757.193455,-0.048099
3755.264711,-0.048097
3753.335967,-0.048085
3751.407223,-0.048192
3749.478479,-0.048408
3747.549735,-0.048249
3745.62099,-0.04786
3743.692246,-0.047867
3741.763502,-0.048128
3739.834758,-0.048145
3737.906014,-0.047974
3735.97727,-0.047774
3734.048526,-0.047582
3732.119782,-0.047555
3730.191038,-0.047729
3728.262294,-0.047947
3726.33355,-0.048057
3724.404806,-0.04803
3722.476062,-0.047953
3720.547318,-0.047879
3718.618573,-0.047911
3716.689829,-0.048049
3714.761085,-0.048104
3712.832341,-0.048086
3710.903597,-0.048099
3708.974853,-0.048125
3707.046109,-0.048197
3705.117365,-0.048179
3703.188621,-0.047944
3701.259877,-0.047783
3699.331133,-0.047811
3697.402389,-0.047781
3695.473645,-0.047751
3693.5449,-0.047847
3691.616156,-0.047983
3689.687412,-0.048268
3687.758668,-0.048607
3685.829924,-0.048675
3683.90118,-0.048681
3681.972436,-0.048793
3680.043692,-0.04875
3678.114948,-0.048579
3676.186204,-0.048583
3674.25746,-0.048692
3672.328716,-0.048678
3670.399972,-0.048689
3668.471228,-0.048758
3666.542483,-0.048756
3664.613739,-0.048836
3662.684995,-0.048921
3660.756251,-0.048775
3658.827507,-0.04857
3656.898763,-0.0486
3654.970019,-0.048763
3653.041275,-0.048708
3651.112531,-0.048518
3649.183787,-0.04855
3647.255043,-0.048722
3645.326299,-0.048829
3643.397555,-0.048875
3641.468811,-0.048822
3639.540066,-0.048773
3637.611322,-0.048947
3635.682578,-0.049213
3633.753834,-0.049303
3631.82509,-0.049262
3629.896346,-0.049295
3627.967602,-0.049454
3626.038858,-0.049573
3624.110114,-0.049612
3622.18137,-0.049626
3620.252626,-0.0495
3618.323882,-0.049318
3616.395138,-0.0494
3614.466393,-0.0497
3612.537649,-0.049875
3610.608905,-0.049756
3608.680161,-0.049547
3606.751417,-0.049529
3604.822673,-0.049606
3602.893929,-0.049603
3600.965185,-0.049629
3599.036441,-0.049719
3597.107697,-0.049718
3595.178953,-0.049657
3593.250209,-0.049692
3591.321465,-0.049887
3589.392721,-0.050246
3587.463976,-0.050529
3585.535232,-0.050536
3583.606488,-0.050472
3581.677744,-0.050426
3579.749,-0.050374
3577.820256,-0.050416
3575.891512,-0.050529
3573.962768,-0.050683
3572.034024,-0.050865
3570.10528,-0.050936
3568.176536,-0.05091
3566.247792,-0.050979
3564.319048,-0.051192
3562.390304,-0.051474
3560.461559,-0.051772
3558.532815,-0.052032
3556.604071,-0.05209
3554.675327,-0.051835
3552.746583,-0.051547
3550.817839,-0.051609
3548.889095,-0.051975
3546.960351,-0.052252
3545.031607,-0.052204
3543.102863,-0.052017
3541.174119,-0.051928
3539.245375,-0.051926
3537.316631,-0.051994
3535.387886,-0.052119
3533.459142,-0.052152
3531.530398,-0.05214
3529.601654,-0.0522
3527.67291,-0.052214
3525.744166,-0.052201
3523.815422,-0.05225
3521.886678,-0.052194
3519.957934,-0.052054
3518.02919,-0.052086
3516.100446,-0.052243
3514.171702,-0.05234
3512.242958,-0.052435
3510.314214,-0.052515
3508.385469,-0.052475
3506.456725,-0.052435
3504.527981,-0.052582
3502.599237,-0.052844
3500.670493,-0.052943
3498.741749,-0.052816
3496.813005,-0.052713
3494.884261,-0.052896
3492.955517,-0.053306
3491.026773,-0.053648
3489.098029,-0.05378
3487.169285,-0.053766
3485.240541,-0.053703
3483.311796,-0.053699
3481.383052,-0.05391
3479.454308,-0.05421
3477.525564,-0.054276
3475.59682,-0.054299
3473.668076,-0.054602
3471.739332,-0.054989
3469.810588,-0.055158
3467.881844,-0.055133
3465.9531,-0.055119
3464.024356,-0.055221
3462.095612,-0.05545
3460.166868,-0.055755
3458.238124,-0.056002
3456.309379,-0.056106
3454.380635,-0.056139
3452.451891,-0.056228
3450.523147,-0.05634
3448.594403,-0.056444
3446.665659,-0.056601
3444.736915,-0.056735
3442.808171,-0.056759
3440.879427,-0.056769
3438.950683,-0.056831
3437.021939,-0.056849
3435.093195,-0.056815
3433.164451,-0.056853
3431.235707,-0.056911
3429.306962,-0.056922
3427.378218,-0.057011
3425.449474,-0.057095
3423.52073,-0.056949
3421.591986,-0.056717
3419.663242,-0.056567
3417.734498,-0.056439
3415.805754,-0.056311
3413.87701,-0.056136
3411.948266,-0.055944
3410.019522,-0.055795
3408.090778,-0.055649
3406.162034,-0.055465
3404.233289,-0.05521
3402.304545,-0.055009
3400.375801,-0.055006
3398.447057,-0.055062
3396.518313,-0.055042
3394.589569,-0.054977
3392.660825,-0.054873
3390.732081,-0.054792
3388.803337,-0.054891
3386.874593,-0.055123
3384.945849,-0.055262
3383.017105,-0.055198
3381.088361,-0.055027
3379.159617,-0.054903
3377.230872,-0.054808
3375.302128,-0.054688
3373.373384,-0.054611
3371.44464,-0.054577
3369.515896,-0.054515
3367.587152,-0.054436
3365.658408,-0.054411
3363.729664,-0.054404
3361.80092,-0.05431
3359.872176,-0.054162
3357.943432,-0.054111
3356.014688,-0.054224
3354.085944,-0.054305
3352.1572,-0.054194
3350.228455,-0.05403
3348.299711,-0.053946
3346.370967,-0.053939
3344.442223,-0.054
3342.513479,-0.05405
3340.584735,-0.054036
3338.655991,-0.053994
3336.727247,-0.053913
3334.798503,-0.053861
3332.869759,-0.053925
3330.941015,-0.053952
3329.012271,-0.053919
3327.083527,-0.05395
3325.154782,-0.05395
3323.226038,-0.053918
3321.297294,-0.053947
3319.36855,-0.053971
3317.439806,-0.053937
3315.511062,-0.053874
3313.582318,-0.053842
3311.653574,-0.053838
3309.72483,-0.053789
3307.796086,-0.053685
3305.867342,-0.053578
3303.938598,-0.053551
3302.009854,-0.053604
3300.08111,-0.053668
3298.152365,-0.053778
3296.223621,-0.053944
3294.294877,-0.054037
3292.366133,-0.05403
3290.437389,-0.054025
3288.508645,-0.053958
3286.579901,-0.053709
3284.651157,-0.053429
3282.722413,-0.053366
3280.793669,-0.053487
3278.864925,-0.053572
3276.936181,-0.05355
3275.007437,-0.05349
3273.078692,-0.053392
3271.149948,-0.053255
3269.221204,-0.053187
3267.29246,-0.053255
3265.363716,-0.053392
3263.434972,-0.053527
3261.506228,-0.053572
3259.577484,-0.05335
3257.64874,-0.05296
3255.719996,-0.052783
3253.791252,-0.052899
3251.862508,-0.053066
3249.933764,-0.053095
3248.00502,-0.05307
3246.076275,-0.053142
3244.147531,-0.053195
3242.218787,-0.05312
3240.290043,-0.052965
3238.361299,-0.052818
3236.432555,-0.052787
3234.503811,-0.052838
3232.575067,-0.052909
3230.646323,-0.053004
3228.717579,-0.053068
3226.788835,-0.053124
3224.860091,-0.053184
3222.931347,-0.053139
3221.002603,-0.053029
3219.073858,-0.052964
3217.145114,-0.052911
3215.21637,-0.052882
3213.287626,-0.052899
3211.358882,-0.052899
3209.430138,-0.052932
3207.501394,-0.053059
3205.57265,-0.053202
3203.643906,-0.053274
3201.715162,-0.053258
3199.786418,-0.053187
3197.857674,-0.053117
3195.92893,-0.053083
3194.000185,-0.053077
3192.071441,-0.053109
3190.142697,-0.053181
3188.213953,-0.053157
3186.285209,-0.05297
3184.356465,-0.052802
3182.427721,-0.052805
3180.498977,-0.052928
3178.570233,-0.053042
3176.641489,-0.053054
3174.712745,-0.053032
3172.784001,-0.053073
3170.855257,-0.053074
3168.926513,-0.052963
3166.997768,-0.052841
3165.069024,-0.052757
3163.14028,-0.052668
3161.211536,-0.052598
3159.282792,-0.052547
3157.354048,-0.052431
3155.425304,-0.052296
3153.49656,-0.052258
3151.567816,-0.052326
3149.639072,-0.052353
3147.710328,-0.052238
3145.781584,-0.052163
3143.85284,-0.052167
3141.924096,-0.052062
3139.995351,-0.051924
3138.066607,-0.051895
3136.137863,-0.051975
3134.209119,-0.052128
3132.280375,-0.052217
3130.351631,-0.052164
3128.422887,-0.052096
3126.494143,-0.052113
3124.565399,-0.052173
3122.636655,-0.052212
3120.707911,-0.052165
3118.779167,-0.052008
3116.850423,-0.05189
3114.921678,-0.051958
3112.992934,-0.052119
3111.06419,-0.052253
3109.135446,-0.052401
3107.206702,-0.052528
3105.277958,-0.052557
3103.349214,-0.052559
3101.42047,-0.052591
3099.491726,-0.052627
3097.562982,-0.052645
3095.634238,-0.052653
3093.705494,-0.052683
3091.77675,-0.052804
3089.848006,-0.053022
3087.919261,-0.0532
3085.990517,-0.053326
3084.061773,-0.053547
3082.133029,-0.053808
3080.204285,-0.053978
3078.275541,-0.05421
3076.346797,-0.054582
3074.418053,-0.054848
3072.489309,-0.054933
3070.560565,-0.054957
3068.631821,-0.054864
3066.703077,-0.054627
3064.774333,-0.054417
3062.845589,-0.054292
3060.916844,-0.054153
3058.9881,-0.053987
3057.059356,-0.053808
3055.130612,-0.053648
3053.201868,-0.053583
3051.273124,-0.053529
3049.34438,-0.053359
3047.415636,-0.053171
3045.486892,-0.053156
3043.558148,-0.05328
3041.629404,-0.053354
3039.70066,-0.053337
3037.771916,-0.053297
3035.843171,-0.053247
3033.914427,-0.05321
3031.985683,-0.053259
3030.056939,-0.053323
3028.128195,-0.05321
3026.199451,-0.052975
3024.270707,-0.052789
3022.341963,-0.052621
3020.413219,-0.052429
3018.484475,-0.052336
3016.555731,-0.052388
3014.626987,-0.052441
3012.698243,-0.052406
3010.769499,-0.052402
3008.840754,-0.052559
3006.91201,-0.052815
3004.983266,-0.053037
3003.054522,-0.053225
3001.125778,-0.053451
2999.197034,-0.053809
2997.26829,-0.054439
2995.339546,-0.055457
2993.410802,-0.056875
2991.482058,-0.0587
2989.553314,-0.060926
2987.62457,-0.063458
2985.695826,-0.066316
2983.767081,-0.069616
2981.838337,-0.073358
2979.909593,-0.077615
2977.980849,-0.082518
2976.052105,-0.088053
2974.123361,-0.094253
2972.194617,-0.101171
2970.265873,-0.108637
2968.337129,-0.116344
2966.408385,-0.123931
2964.479641,-0.130928
2962.550897,-0.136641
2960.622153,-0.140174
2958.693409,-0.140673
2956.764664,-0.137799
2954.83592,-0.132304
2952.907176,-0.125635
2950.978432,-0.119103
2949.049688,-0.11365
2947.120944,-0.109849
2945.1922,-0.107903
2943.263456,-0.107699
2941.334712,-0.108986
2939.405968,-0.11137
2937.477224,-0.114217
2935.54848,-0.116776
2933.619736,-0.118322
2931.690992,-0.118442
2929.762247,-0.117188
2927.833503,-0.115061
2925.904759,-0.112924
2923.976015,-0.111547
2922.047271,-0.1112
2920.118527,-0.111651
2918.189783,-0.112271
2916.261039,-0.112262
2914.332295,-0.111369
2912.403551,-0.110001
2910.474807,-0.108447
2908.546063,-0.106702
2906.617319,-0.104741
2904.688574,-0.102589
2902.75983,-0.100338
2900.831086,-0.098055
2898.902342,-0.09573
2896.973598,-0.093349
2895.044854,-0.090962
2893.11611,-0.08869
2891.187366,-0.086621
2889.258622,-0.084829
2887.329878,-0.083533
2885.401134,-0.083133
2883.47239,-0.084021
2881.543646,-0.086462
2879.614902,-0.090447
2877.686157,-0.095285
2875.757413,-0.099569
2873.828669,-0.10187
2871.899925,-0.101648
2869.971181,-0.099594
2868.042437,-0.09683
2866.113693,-0.093918
2864.184949,-0.090947
2862.256205,-0.087951
2860.327461,-0.085035
2858.398717,-0.082458
2856.469973,-0.08055
2854.541229,-0.079564
2852.612485,-0.079503
2850.68374,-0.079908
2848.754996,-0.079953
2846.826252,-0.078997
2844.897508,-0.077137
2842.968764,-0.074974
2841.04002,-0.072927
2839.111276,-0.071129
2837.182532,-0.069655
2835.253788,-0.068486
2833.325044,-0.067513
2831.3963,-0.066669
2829.467556,-0.065946
2827.538812,-0.065415
2825.610067,-0.065089
2823.681323,-0.064841
2821.752579,-0.064634
2819.823835,-0.064477
2817.895091,-0.064307
2815.966347,-0.064061
2814.037603,-0.063666
2812.108859,-0.063149
2810.180115,-0.062654
2808.251371,-0.062216
2806.322627,-0.06179
2804.393883,-0.061424
2802.465139,-0.061154
2800.536395,-0.060932
2798.60765,-0.060743
2796.678906,-0.06057
2794.750162,-0.060383
2792.821418,-0.060193
2790.892674,-0.060011
2788.96393,-0.059847
2787.035186,-0.059722
2785.106442,-0.059624
2783.177698,-0.059526
2781.248954,-0.059405
2779.32021,-0.059294
2777.391466,-0.059224
2775.462722,-0.059185
2773.533977,-0.059177
2771.605233,-0.059176
2769.676489,-0.059099
2767.747745,-0.058945
2765.819001,-0.058838
2763.890257,-0.058868
2761.961513,-0.05895
2760.032769,-0.058955
2758.104025,-0.058857
2756.175281,-0.058743
2754.246537,-0.058727
2752.317793,-0.058799
2750.389049,-0.058816
2748.460305,-0.058755
2746.53156,-0.058756
2744.602816,-0.05886
2742.674072,-0.058963
2740.745328,-0.058988
2738.816584,-0.058965
2736.88784,-0.058955
2734.959096,-0.058918
2733.030352,-0.058804
2731.101608,-0.058637
2729.172864,-0.058512
2727.24412,-0.058485
2725.315376,-0.058399
2723.386632,-0.058166
2721.457888,-0.057956
2719.529143,-0.057861
2717.600399,-0.057796
2715.671655,-0.057699
2713.742911,-0.057615
2711.814167,-0.057598
2709.885423,-0.05762
2707.956679,-0.057621
2706.027935,-0.057561
2704.099191,-0.057455
2702.170447,-0.057407
2700.241703,-0.057458
2698.312959,-0.057505
2696.384215,-0.057482
2694.45547,-0.05743
2692.526726,-0.057396
2690.597982,-0.057367
2688.669238,-0.057297
2686.740494,-0.057177
2684.81175,-0.05706
2682.883006,-0.057051
2680.954262,-0.057167
2679.025518,-0.057256
2677.096774,-0.057223
2675.16803,-0.057137
2673.239286,-0.057098
2671.310542,-0.057122
2669.381798,-0.057128
2667.453053,-0.057091
2665.524309,-0.05706
2663.595565,-0.057011
2661.666821,-0.056914
2659.738077,-0.056795
2657.809333,-0.056635
2655.880589,-0.05643
2653.951845,-0.056209
2652.023101,-0.055991
2650.094357,-0.055818
2648.165613,-0.055666
2646.236869,-0.055457
2644.308125,-0.055218
2642.379381,-0.054985
2640.450636,-0.054751
2638.521892,-0.054541
2636.593148,-0.054371
2634.664404,-0.054197
2632.73566,-0.053995
2630.806916,-0.053814
2628.878172,-0.053692
2626.949428,-0.053623
2625.020684,-0.053599
2623.09194,-0.053583
2621.163196,-0.05353
2619.234452,-0.053441
2617.305708,-0.053396
2615.376963,-0.053393
2613.448219,-0.053263
2611.519475,-0.05302
2609.590731,-0.052828
2607.661987,-0.052657
2605.733243,-0.052494
2603.804499,-0.052432
2601.875755,-0.052385
2599.947011,-0.052256
2598.018267,-0.052143
2596.089523,-0.052111
2594.160779,-0.052119
2592.232035,-0.05208
2590.303291,-0.051949
2588.374546,-0.051822
2586.445802,-0.051728
2584.517058,-0.05166
2582.588314,-0.051687
2580.65957,-0.051687
2578.730826,-0.051549
2576.802082,-0.051357
2574.873338,-0.051067
2572.944594,-0.05072
2571.01585,-0.050544
2569.087106,-0.050578
2567.158362,-0.050719
2565.229618,-0.050925
2563.300874,-0.05109
2561.372129,-0.051006
2559.443385,-0.050656
2557.514641,-0.050295
2555.585897,-0.050199
2553.657153,-0.05038
2551.728409,-0.050522
2549.799665,-0.050389
2547.870921,-0.050084
2545.942177,-0.049799
2544.013433,-0.049729
2542.084689,-0.049953
2540.155945,-0.050194
2538.227201,-0.050226
2536.298456,-0.050217
2534.369712,-0.050242
2532.440968,-0.050169
2530.512224,-0.050062
2528.58348,-0.050081
2526.654736,-0.050259
2524.725992,-0.0504
2522.797248,-0.050319
2520.868504,-0.050215
2518.93976,-0.050295
2517.011016,-0.05039
2515.082272,-0.050372
2513.153528,-0.05038
2511.224784,-0.050461
2509.296039,-0.05049
2507.367295,-0.050402
2505.438551,-0.050232
2503.509807,-0.050028
2501.581063,-0.049818
2499.652319,-0.049697
2497.723575,-0.049642
2495.794831,-0.049467
2493.866087,-0.049224
2491.937343,-0.049031
2490.008599,-0.048855
2488.079855,-0.048728
2486.151111,-0.048598
2484.222366,-0.048425
2482.293622,-0.048357
2480.364878,-0.048437
2478.436134,-0.048472
2476.50739,-0.048374
2474.578646,-0.04831
2472.649902,-0.04833
2470.721158,-0.048348
2468.792414,-0.048398
2466.86367,-0.04851
2464.934926,-0.048527
2463.006182,-0.048369
2461.077438,-0.048203
2459.148694,-0.048112
2457.219949,-0.048084
2455.291205,-0.048118
2453.362461,-0.048117
2451.433717,-0.04806
2449.504973,-0.04801
2447.576229,-0.048001
2445.647485,-0.048022
2443.718741,-0.047983
2441.789997,-0.047879
2439.861253,-0.04781
2437.932509,-0.047847
2436.003765,-0.047989
2434.075021,-0.048152
2432.146277,-0.048177
2430.217532,-0.048007
2428.288788,-0.04786
2426.360044,-0.047894
2424.4313,-0.047971
2422.502556,-0.047982
2420.573812,-0.04795
2418.645068,-0.047966
2416.716324,-0.048216
2414.78758,-0.048614
2412.858836,-0.048813
2410.930092,-0.048751
2409.001348,-0.048594
2407.072604,-0.048517
2405.143859,-0.048671
2403.215115,-0.048899
2401.286371,-0.048954
2399.357627,-0.048915
2397.428883,-0.048941
2395.500139,-0.049058
2393.571395,-0.049226
2391.642651,-0.049333
2389.713907,-0.049402
2387.785163,-0.049585
2385.856419,-0.049843
2383.927675,-0.05005
2381.998931,-0.050185
2380.070187,-0.050224
2378.141442,-0.050169
2376.212698,-0.050052
2374.283954,-0.049871
2372.35521,-0.049673
2370.426466,-0.049516
2368.497722,-0.049407
2366.568978,-0.049396
2364.640234,-0.049486
2362.71149,-0.049604
2360.782746,-0.049769
2358.854002,-0.049998
2356.925258,-0.050209
2354.996514,-0.050405
2353.06777,-0.050725
2351.139025,-0.051157
2349.210281,-0.051402
2347.281537,-0.051317
2345.352793,-0.051071
2343.424049,-0.050851
2341.495305,-0.050758
2339.566561,-0.050747
2337.637817,-0.050726
2335.709073,-0.050732
2333.780329,-0.050776
2331.851585,-0.050806
2329.922841,-0.050823
2327.994097,-0.05087
2326.065352,-0.050924
2324.136608,-0.050751
2322.207864,-0.050187
2320.27912,-0.049525
2318.350376,-0.049075
2316.421632,-0.04875
2314.492888,-0.048436
2312.564144,-0.048088
2310.6354,-0.047729
2308.706656,-0.047492
2306.777912,-0.047367
2304.849168,-0.047182
2302.920424,-0.046825
2300.99168,-0.046408
2299.062935,-0.046092
2297.134191,-0.045767
2295.205447,-0.045318
2293.276703,-0.044912
2291.347959,-0.044666
2289.419215,-0.044337
2287.490471,-0.043687
2285.561727,-0.042935
2283.632983,-0.042374
2281.704239,-0.041883
2279.775495,-0.041244
2277.846751,-0.04061
2275.918007,-0.040134
2273.989262,-0.039561
2272.060518,-0.038835
2270.131774,-0.038226
2268.20303,-0.03776
2266.274286,-0.037394
2264.345542,-0.037119
2262.416798,-0.036683
2260.488054,-0.036014
2258.55931,-0.035566
2256.630566,-0.035509
2254.701822,-0.035435
2252.773078,-0.035078
2250.844334,-0.034465
2248.91559,-0.033923
2246.986845,-0.033729
2245.058101,-0.033703
2243.129357,-0.033705
2241.200613,-0.033332
2239.271869,-0.032171
2237.343125,-0.031082
2235.414381,-0.030975
2233.485637,-0.031261
2231.556893,-0.031079
2229.628149,-0.030369
2227.699405,-0.029623
2225.770661,-0.02932
2223.841917,-0.029155
2221.913173,-0.028542
2219.984428,-0.027759
2218.055684,-0.027377
2216.12694,-0.027221
2214.198196,-0.027039
2212.269452,-0.027058
2210.340708,-0.02719
2208.411964,-0.027172
2206.48322,-0.027032
2204.554476,-0.026691
2202.625732,-0.026145
2200.696988,-0.025621
2198.768244,-0.025317
2196.8395,-0.025277
2194.910755,-0.025205
2192.982011,-0.024827
2191.053267,-0.024153
2189.124523,-0.023244
2187.195779,-0.022438
2185.267035,-0.022064
2183.338291,-0.021717
2181.409547,-0.021051
2179.480803,-0.020588
2177.552059,-0.020758
2175.623315,-0.021251
2173.694571,-0.021503
2171.765827,-0.021019
2169.837083,-0.019737
2167.908338,-0.018291
2165.979594,-0.017306
2164.05085,-0.016793
2162.122106,-0.016256
2160.193362,-0.015379
2158.264618,-0.014999
2156.335874,-0.015901
2154.40713,-0.017217
2152.478386,-0.018074
2150.549642,-0.018847
2148.620898,-0.019942
2146.692154,-0.021089
2144.76341,-0.021923
2142.834666,-0.022581
2140.905921,-0.023494
2138.977177,-0.024488
2137.048433,-0.025224
2135.119689,-0.026052
2133.190945,-0.02717
2131.262201,-0.028452
2129.333457,-0.029873
2127.404713,-0.031
2125.475969,-0.031475
2123.547225,-0.031687
2121.618481,-0.031978
2119.689737,-0.032286
2117.760993,-0.032597
2115.832248,-0.032845
2113.903504,-0.032937
2111.97476,-0.032945
2110.046016,-0.032876
2108.117272,-0.032868
2106.188528,-0.033058
2104.259784,-0.033076
2102.33104,-0.032777
2100.402296,-0.032484
2098.473552,-0.03226
2096.544808,-0.032105
2094.616064,-0.032122
2092.68732,-0.03219
2090.758576,-0.032158
2088.829831,-0.032082
2086.901087,-0.031999
2084.972343,-0.031873
2083.043599,-0.031563
2081.114855,-0.030864
2079.186111,-0.030001
2077.257367,-0.029267
2075.328623,-0.028601
2073.399879,-0.028186
2071.471135,-0.028256
2069.542391,-0.028447
2067.613647,-0.028195
2065.684903,-0.027536
2063.756158,-0.026846
2061.827414,-0.02634
2059.89867,-0.026161
2057.969926,-0.026024
2056.041182,-0.025406
2054.112438,-0.024333
2052.183694,-0.023269
2050.25495,-0.022353
2048.326206,-0.021216
2046.397462,-0.019946
2044.468718,-0.018987
2042.539974,-0.018203
2040.61123,-0.017498
2038.682486,-0.016994
2036.753741,-0.016443
2034.824997,-0.015769
2032.896253,-0.015236
2030.967509,-0.01476
2029.038765,-0.014432
2027.110021,-0.014517
2025.181277,-0.014692
2023.252533,-0.014877
2021.323789,-0.015515
2019.395045,-0.016387
2017.466301,-0.016582
2015.537557,-0.015845
2013.608813,-0.014914
2011.680069,-0.014405
2009.751324,-0.014404
2007.82258,-0.014969
2005.893836,-0.016095
2003.965092,-0.017221
2002.036348,-0.017859
2000.107604,-0.018294
1998.17886,-0.018623
1996.250116,-0.018643
1994.321372,-0.018683
1992.392628,-0.018898
1990.463884,-0.018824
1988.53514,-0.018458
1986.606396,-0.01827
1984.677651,-0.018122
1982.748907,-0.017582
1980.820163,-0.016545
1978.891419,-0.015233
1976.962675,-0.014365
1975.033931,-0.014494
1973.105187,-0.015261
1971.176443,-0.015909
1969.247699,-0.016176
1967.318955,-0.01647
1965.390211,-0.016954
1963.461467,-0.01738
1961.532723,-0.017925
1959.603979,-0.01908
1957.675234,-0.020623
1955.74649,-0.021695
1953.817746,-0.022237
1951.889002,-0.022824
1949.960258,-0.023446
1948.031514,-0.024003
1946.10277,-0.024661
1944.174026,-0.025192
1942.245282,-0.025549
1940.316538,-0.026082
1938.387794,-0.026755
1936.45905,-0.027449
1934.530306,-0.028229
1932.601562,-0.028883
1930.672817,-0.029237
1928.744073,-0.029559
1926.815329,-0.030114
1924.886585,-0.030715
1922.957841,-0.031082
1921.029097,-0.031369
1919.100353,-0.031797
1917.171609,-0.032266
1915.242865,-0.032691
1913.314121,-0.033096
1911.385377,-0.033451
1909.456633,-0.033696
1907.527889,-0.033822
1905.599144,-0.033945
1903.6704,-0.034152
1901.741656,-0.034354
1899.812912,-0.034488
1897.884168,-0.034667
1895.955424,-0.034948
1894.02668,-0.035183
1892.097936,-0.035323
1890.169192,-0.035523
1888.240448,-0.035817
1886.311704,-0.03606
1884.38296,-0.036206
1882.454216,-0.036377
1880.525472,-0.036702
1878.596727,-0.037101
1876.667983,-0.037314
1874.739239,-0.037347
1872.810495,-0.037417
1870.881751,-0.037518
1868.953007,-0.037691
1867.024263,-0.038075
1865.095519,-0.03845
1863.166775,-0.038612
1861.238031,-0.038716
1859.309287,-0.038869
1857.380543,-0.039061
1855.451799,-0.039288
1853.523055,-0.0395
1851.59431,-0.039704
1849.665566,-0.039984
1847.736822,-0.040233
1845.808078,-0.040283
1843.879334,-0.04025
1841.95059,-0.040215
1840.021846,-0.040147
1838.093102,-0.040171
1836.164358,-0.040322
1834.235614,-0.040421
1832.30687,-0.040418
1830.378126,-0.040466
1828.449382,-0.040558
1826.520637,-0.040556
1824.591893,-0.040582
1822.663149,-0.040801
1820.734405,-0.041034
1818.805661,-0.041103
1816.876917,-0.04126
1814.948173,-0.041645
1813.019429,-0.041981
1811.090685,-0.042178
1809.161941,-0.042437
1807.233197,-0.042812
1805.304453,-0.043221
1803.375709,-0.043658
1801.446965,-0.044108
1799.51822,-0.044469
1797.589476,-0.044564
1795.660732,-0.044289
1793.731988,-0.043676
1791.803244,-0.042734
1789.8745,-0.041522
1787.945756,-0.040132
1786.017012,-0.038535
1784.088268,-0.036678
1782.159524,-0.03466
1780.23078,-0.032659
1778.302036,-0.030704
1776.373292,-0.028724
1774.444547,-0.026747
1772.515803,-0.02491
1770.587059,-0.023141
1768.658315,-0.021081
1766.729571,-0.018598
1764.800827,-0.015868
1762.872083,-0.01303
1760.943339,-0.010194
1759.014595,-0.007698
1757.085851,-0.006085
1755.157107,-0.005815
1753.228363,-0.007339
1751.299619,-0.011253
1749.370875,-0.018078
1747.44213,-0.028233
1745.513386,-0.042249
1743.584642,-0.06031
1741.655898,-0.082135
1739.727154,-0.107075
1737.79841,-0.133336
1735.869666,-0.160385
1733.940922,-0.189406
1732.012178,-0.218666
1730.083434,-0.246327
1728.15469,-0.273121
1726.225946,-0.298629
1724.297202,-0.321391
1722.368458,-0.339572
1720.439713,-0.350932
1718.510969,-0.353479
1716.582225,-0.345443
1714.653481,-0.326808
1712.724737,-0.300103
1710.795993,-0.268814
1708.867249,-0.236614
1706.938505,-0.206492
1705.009761,-0.180604
1703.081017,-0.159866
1701.152273,-0.143339
1699.223529,-0.130441
1697.294785,-0.120962
1695.36604,-0.113979
1693.437296,-0.108852
1691.508552,-0.104987
1689.579808,-0.101927
1687.651064,-0.099529
1685.72232,-0.097619
1683.793576,-0.096079
1681.864832,-0.094681
1679.936088,-0.093087
1678.007344,-0.091166
1676.0786,-0.089075
1674.149856,-0.086946
1672.221112,-0.084773
1670.292368,-0.082682
1668.363623,-0.080844
1666.434879,-0.079231
1664.506135,-0.077748
1662.577391,-0.076446
1660.648647,-0.075372
1658.719903,-0.074454
1656.791159,-0.073527
1654.862415,-0.07254
1652.933671,-0.071769
1651.004927,-0.071259
1649.076183,-0.07075
1647.147439,-0.070316
1645.218695,-0.07006
1643.289951,-0.069827
1641.361206,-0.06953
1639.432462,-0.06921
1637.503718,-0.068906
1635.574974,-0.068708
1633.64623,-0.068638
1631.717486,-0.068614
1629.788742,-0.068638
1627.859998,-0.068655
1625.931254,-0.068541
1624.00251,-0.06834
1622.073766,-0.068151
1620.145022,-0.067927
1618.216278,-0.067682
1616.287533,-0.067614
1614.358789,-0.067785
1612.430045,-0.068138
1610.501301,-0.068791
1608.572557,-0.070194
1606.643813,-0.073139
1604.715069,-0.078125
1602.786325,-0.084298
1600.857581,-0.089224
1598.928837,-0.090495
1597.000093,-0.087817
1595.071349,-0.083153
1593.142605,-0.078887
1591.213861,-0.076232
1589.285116,-0.075376
1587.356372,-0.076415
1585.427628,-0.079633
1583.498884,-0.084744
1581.57014,-0.089772
1579.641396,-0.091665
1577.712652,-0.089085
1575.783908,-0.083777
1573.855164,-0.078777
1571.92642,-0.075426
1569.997676,-0.073411
1568.068932,-0.072206
1566.140188,-0.071449
1564.211443,-0.070897
1562.282699,-0.070372
1560.353955,-0.069984
1558.425211,-0.070042
1556.496467,-0.070417
1554.567723,-0.070804
1552.638979,-0.071247
1550.710235,-0.071884
1548.781491,-0.072813
1546.852747,-0.074085
1544.924003,-0.075704
1542.995259,-0.077607
1541.066515,-0.079589
1539.137771,-0.081108
1537.209026,-0.081499
1535.280282,-0.080922
1533.351538,-0.080182
1531.422794,-0.079862
1529.49405,-0.079973
1527.565306,-0.080339
1525.636562,-0.080864
1523.707818,-0.081525
1521.779074,-0.082367
1519.85033,-0.083316
1517.921586,-0.084263
1515.992842,-0.0853
1514.064098,-0.086468
1512.135354,-0.087673
1510.206609,-0.088843
1508.277865,-0.090113
1506.349121,-0.091717
1504.420377,-0.093443
1502.491633,-0.095051
1500.562889,-0.096792
1498.634145,-0.098972
1496.705401,-0.101885
1494.776657,-0.105802
1492.847913,-0.110802
1490.919169,-0.116578
1488.990425,-0.121727
1487.061681,-0.124526
1485.132936,-0.125036
1483.204192,-0.12499
1481.275448,-0.126066
1479.346704,-0.129019
1477.41796,-0.133886
1475.489216,-0.140093
1473.560472,-0.146758
1471.631728,-0.153295
1469.702984,-0.159434
1467.77424,-0.164758
1465.845496,-0.16827
1463.916752,-0.16923
1461.988008,-0.168405
1460.059264,-0.167233
1458.130519,-0.166382
1456.201775,-0.165664
1454.273031,-0.165203
1452.344287,-0.166174
1450.415543,-0.169296
1448.486799,-0.173044
1446.558055,-0.174929
1444.629311,-0.174981
1442.700567,-0.176115
1440.771823,-0.180724
1438.843079,-0.188914
1436.914335,-0.199209
1434.985591,-0.208525
1433.056847,-0.21438
1431.128102,-0.2177
1429.199358,-0.221271
1427.270614,-0.225649
1425.34187,-0.227827
1423.413126,-0.225658
1421.484382,-0.22087
1419.555638,-0.215989
1417.626894,-0.21178
1415.69815,-0.2078
1413.769406,-0.203339
1411.840662,-0.197962
1409.911918,-0.191796
1407.983174,-0.18546
1406.054429,-0.179626
1404.125685,-0.174794
1402.196941,-0.171325
1400.268197,-0.169289
1398.339453,-0.168361
1396.410709,-0.168166
1394.481965,-0.168629
1392.553221,-0.169625
1390.624477,-0.170847
1388.695733,-0.172109
1386.766989,-0.17312
1384.838245,-0.173267
1382.909501,-0.171971
1380.980757,-0.168864
1379.052012,-0.163815
1377.123268,-0.157404
1375.194524,-0.150975
1373.26578,-0.145628
1371.337036,-0.141179
1369.408292,-0.136621
1367.479548,-0.131699
1365.550804,-0.127325
1363.62206,-0.124527
1361.693316,-0.123672
1359.764572,-0.124465
1357.835828,-0.126072
1355.907084,-0.127195
1353.97834,-0.126613
1352.049595,-0.12417
1350.120851,-0.120991
1348.192107,-0.118537
1346.263363,-0.117856
1344.334619,-0.119486
1342.405875,-0.123234
1340.477131,-0.12805
1338.548387,-0.132547
1336.619643,-0.13584
1334.690899,-0.138013
1332.762155,-0.139994
1330.833411,-0.142797
1328.904667,-0.146421
1326.975922,-0.149301
1325.047178,-0.149324
1323.118434,-0.146017
1321.18969,-0.141262
1319.260946,-0.137523
1317.332202,-0.136225
1315.403458,-0.137823
1313.474714,-0.142465
1311.54597,-0.150049
1309.617226,-0.159905
1307.688482,-0.17098
1305.759738,-0.18284
1303.830994,-0.196178
1301.90225,-0.211814
1299.973505,-0.229935
1298.044761,-0.250872
1296.116017,-0.275491
1294.187273,-0.304053
1292.258529,-0.334883
1290.329785,-0.36433
1288.401041,-0.388622
1286.472297,-0.406302
1284.543553,-0.418695
1282.614809,-0.427983
1280.686065,-0.435201
1278.757321,-0.439805
1276.828577,-0.440467
1274.899832,-0.436361
1272.971088,-0.428218
1271.042344,-0.418475
1269.1136,-0.410325
1267.184856,-0.405989
1265.256112,-0.405557
1263.327368,-0.407515
1261.398624,-0.41014
1259.46988,-0.412249
1257.541136,-0.412877
1255.612392,-0.410622
1253.683648,-0.404053
1251.754904,-0.393171
1249.82616,-0.379845
1247.897415,-0.366326
1245.968671,-0.353463
1244.039927,-0.340583
1242.111183,-0.326791
1240.182439,-0.311987
1238.253695,-0.296815
1236.324951,-0.28212
1234.396207,-0.268611
1232.467463,-0.256492
1230.538719,-0.245005
1228.609975,-0.232755
1226.681231,-0.218798
1224.752487,-0.203512
1222.823743,-0.18837
1220.894998,-0.174843
1218.966254,-0.163655
1217.03751,-0.154809
1215.108766,-0.147904
1213.180022,-0.142541
1211.251278,-0.138486
1209.322534,-0.135519
1207.39379,-0.133425
1205.465046,-0.132002
1203.536302,-0.130978
1201.607558,-0.130063
1199.678814,-0.128956
1197.75007,-0.127295
1195.821325,-0.124756
1193.892581,-0.121118
1191.963837,-0.11629
1190.035093,-0.110326
1188.106349,-0.10342
1186.177605,-0.096122
1184.248861,-0.089387
1182.320117,-0.084191
1180.391373,-0.081413
1178.462629,-0.08177
1176.533885,-0.085353
1174.605141,-0.091439
1172.676397,-0.09874
1170.747653,-0.105961
1168.818908,-0.112419
1166.890164,-0.118039
1164.96142,-0.122687
1163.032676,-0.126137
1161.103932,-0.128989
1159.175188,-0.132641
1157.246444,-0.137865
1155.3177,-0.144114
1153.388956,-0.150394
1151.460212,-0.156313
1149.531468,-0.162489
1147.602724,-0.170426
1145.67398,-0.181476
1143.745236,-0.195529
1141.816491,-0.210811
1139.887747,-0.224747
1137.959003,-0.235227
1136.030259,-0.241778
1134.101515,-0.245921
1132.172771,-0.250088
1130.244027,-0.256108
1128.315283,-0.264985
1126.386539,-0.277229
1124.457795,-0.292136
1122.529051,-0.30665
1120.600307,-0.316036
1118.671563,-0.31641
1116.742818,-0.306292
1114.814074,-0.286605
1112.88533,-0.260574
1110.956586,-0.232789
1109.027842,-0.207204
1107.099098,-0.185799
1105.170354,-0.16864
1103.24161,-0.154749
1101.312866,-0.143078
1099.384122,-0.133043
1097.455378,-0.124337
1095.526634,-0.116677
1093.59789,-0.109988
1091.669146,-0.104412
1089.740401,-0.100239
1087.811657,-0.09834
1085.882913,-0.100719
1083.954169,-0.110819
1082.025425,-0.132473
1080.096681,-0.166866
1078.167937,-0.209852
1076.239193,-0.252164
1074.310449,-0.282682
1072.381705,-0.293796
1070.452961,-0.285899
1068.524217,-0.266212
1066.595473,-0.243173
1064.666728,-0.222492
1062.737984,-0.206342
1060.80924,-0.193976
1058.880496,-0.183146
1056.951752,-0.171861
1055.023008,-0.159603
1053.094264,-0.147142
1051.16552,-0.135559
1049.236776,-0.125951
1047.308032,-0.119855
1045.379288,-0.119231
1043.450544,-0.125225
1041.5218,-0.135763
1039.593056,-0.144599
1037.664311,-0.145648
1035.735567,-0.138843
1033.806823,-0.129115
1031.878079,-0.12089
1029.949335,-0.11557
1028.020591,-0.112625
1026.091847,-0.1114
1024.163103,-0.111847
1022.234359,-0.114021
1020.305615,-0.117354
1018.376871,-0.120732
1016.448127,-0.123163
1014.519383,-0.124164
1012.590639,-0.123761
1010.661894,-0.122428
1008.73315,-0.12087
1006.804406,-0.11972
1004.875662,-0.119452
1002.946918,-0.120258
1001.018174,-0.122027
999.08943,-0.12463
997.160686,-0.127943
995.231942,-0.131516
993.303198,-0.134598
991.374454,-0.136551
989.44571,-0.137132
987.516966,-0.13667
985.588221,-0.135962
983.659477,-0.135812
981.730733,-0.136748
979.801989,-0.138928
977.873245,-0.142297
975.944501,-0.147019
974.015757,-0.153331
972.087013,-0.161106
970.158269,-0.170096
968.229525,-0.179869
966.300781,-0.18921
964.372037,-0.196427
962.443293,-0.20032
960.514549,-0.2007
958.585804,-0.198332
956.65706,-0.194394
954.728316,-0.190042
952.799572,-0.186316
950.870828,-0.184024
948.942084,-0.183678
947.01334,-0.185471
945.084596,-0.188903
943.155852,-0.19246
941.227108,-0.194267
939.298364,-0.193299
937.36962,-0.189907
935.440876,-0.185312
933.512132,-0.180533
931.583387,-0.175721
929.654643,-0.170467
927.725899,-0.164595
925.797155,-0.158427
923.868411,-0.152477
921.939667,-0.14719
920.010923,-0.142731
918.082179,-0.138977
916.153435,-0.135751
914.224691,-0.132964
912.295947,-0.130702
910.367203,-0.12904
908.438459,-0.127822
906.509714,-0.126842
904.58097,-0.125844
902.652226,-0.124449
900.723482,-0.122544
898.794738,-0.120424
896.865994,-0.118516
894.93725,-0.117191
893.008506,-0.116498
891.079762,-0.116341
889.151018,-0.117465
887.222274,-0.12165
885.29353,-0.129748
883.364786,-0.140202
881.436042,-0.151774
879.507297,-0.165911
877.578553,-0.182888
875.649809,-0.197923
873.721065,-0.204071
871.792321,-0.198434
869.863577,-0.184753
867.934833,-0.169732
866.006089,-0.157748
864.077345,-0.149699
862.148601,-0.144842
860.219857,-0.142075
858.291113,-0.140398
856.362369,-0.139296
854.433625,-0.138651
852.50488,-0.138662
850.576136,-0.140376
848.647392,-0.144186
846.718648,-0.148066
844.789904,-0.150366
842.86116,-0.151608
840.932416,-0.152077
839.003672,-0.151433
837.074928,-0.149755
835.146184,-0.147262
833.21744,-0.14418
831.288696,-0.140714
829.359952,-0.13697
827.431207,-0.133039
825.502463,-0.128957
823.573719,-0.124777
821.644975,-0.120698
819.716231,-0.116896
817.787487,-0.113574
815.858743,-0.111066
813.929999,-0.109459
812.001255,-0.108654
810.072511,-0.108734
808.143767,-0.109758
806.215023,-0.11181
804.286279,-0.115087
802.357535,-0.119352
800.42879,-0.123923
798.500046,-0.127956
796.571302,-0.130656
794.642558,-0.132136
792.713814,-0.133188
790.78507,-0.134066
788.856326,-0.134608
786.927582,-0.134778
784.998838,-0.134598
783.070094,-0.134123
781.14135,-0.133377
779.212606,-0.132342
777.283862,-0.131139
775.355117,-0.129885
773.426373,-0.128429
771.497629,-0.126564
769.568885,-0.12431
767.640141,-0.121934
765.711397,-0.119933
763.782653,-0.118874
761.853909,-0.119359
759.925165,-0.122281
757.996421,-0.12868
756.067677,-0.139218
754.138933,-0.153979
752.210189,-0.172641
750.281445,-0.194254
748.3527,-0.216516
746.423956,-0.235974
744.495212,-0.249719
742.566468,-0.256868
740.637724,-0.258493
738.70898,-0.25632
736.780236,-0.250617
734.851492,-0.239411
732.922748,-0.221598
730.994004,-0.199939
729.06526,-0.179138
727.136516,-0.162154
725.207772,-0.149387
723.279028,-0.140139
721.350283,-0.133896
719.421539,-0.131054
717.492795,-0.133625
715.564051,-0.144149
713.635307,-0.160464
711.706563,-0.174857
709.777819,-0.184466
707.849075,-0.193846
705.920331,-0.203469
703.991587,-0.208043
702.062843,-0.205985
700.134099,-0.201484
698.205355,-0.198516
696.27661,-0.197904
694.347866,-0.198505
692.419122,-0.198349
690.490378,-0.195861
688.561634,-0.191035
686.63289,-0.185216
684.704146,-0.179937
682.775402,-0.175939
680.846658,-0.173092
678.917914,-0.170663
676.98917,-0.167787
675.060426,-0.164112
673.131682,-0.159762
671.202938,-0.154862
669.274193,-0.149565
667.345449,-0.144479
665.416705,-0.140332
663.487961,-0.13729
661.559217,-0.135433
659.630473,-0.135461
657.701729,-0.138846
655.772985,-0.147344
653.844241,-0.160634
651.915497,-0.174219
649.986753,-0.182884
648.058009,-0.186232
646.129265,-0.187604
644.200521,-0.189853
642.271776,-0.194011
640.343032,-0.199301
638.414288,-0.204129
636.485544,-0.207465
634.5568,-0.208816
632.628056,-0.208524
630.699312,-0.207916
628.770568,-0.208095
626.841824,-0.209549
624.91308,-0.212183
622.984336,-0.215525
621.055592,-0.219632
619.126848,-0.22464
617.198103,-0.229936
615.269359,-0.234766
613.340615,-0.23859
611.411871,-0.240986
609.483127,-0.241779
607.554383,-0.240523
605.625639,-0.235909
603.696895,-0.226993
601.768151,-0.214765
599.839407,-0.20125
597.910663,-0.188149
595.981919,-0.176867
594.053175,-0.168148
592.124431,-0.161662
590.195686,-0.156612
588.266942,-0.152346
586.338198,-0.148507
584.409454,-0.145226
582.48071,-0.14298
580.551966,-0.142028
578.623222,-0.142481
576.694478,-0.144418
574.765734,-0.14718
572.83699,-0.149541
570.908246,-0.150997
568.979502,-0.151743
567.050758,-0.151515
565.122013,-0.149725
563.193269,-0.146414
561.264525,-0.142171
559.335781,-0.13786
557.407037,-0.134355
555.478293,-0.131906
553.549549,-0.13018
551.620805,-0.128806
549.692061,-0.127647
547.763317,-0.126722
545.834573,-0.126023
543.905829,-0.125431
541.977085,-0.124711
540.048341,-0.123932
538.119596,-0.123426
536.190852,-0.122905
534.262108,-0.121707
532.333364,-0.120001
530.40462,-0.118499
528.475876,-0.117355
526.547132,-0.116445
524.618388,-0.115914
522.689644,-0.115518
520.7609,-0.114704
518.832156,-0.113704
516.903412,-0.113021
514.974668,-0.112601
513.045924,-0.112666
511.117179,-0.113757
509.188435,-0.115887
507.259691,-0.118859
505.330947,-0.122323
503.402203,-0.125386
501.473459,-0.127283
499.544715,-0.127707
497.615971,-0.126709
495.687227,-0.125038
493.758483,-0.123453
491.829739,-0.122051
489.900995,-0.120823
487.972251,-0.119847
486.043506,-0.119043
484.114762,-0.118223
482.186018,-0.117445
480.257274,-0.116871
478.32853,-0.116306
476.399786,-0.115745
474.471042,-0.11538
472.542298,-0.114791
470.613554,-0.1139
468.68481,-0.113468
466.756066,-0.113526
464.827322,-0.113591
462.898578,-0.11373
460.969834,-0.113799
459.041089,-0.113547
457.112345,-0.113769
455.183601,-0.115217
453.254857,-0.117343
451.326113,-0.119385
449.397369,-0.120993
447.468625,-0.121997
445.539881,-0.122204
443.611137,-0.121509
441.682393,-0.120925
439.753649,-0.121348
437.824905,-0.121837
435.896161,-0.121709
433.967417,-0.121645
432.038672,-0.122162
430.109928,-0.123267
428.181184,-0.124645
426.25244,-0.125356
424.323696,-0.124612
422.394952,-0.123347
420.466208,-0.123084
418.537464,-0.123382
416.60872,-0.123324
414.679976,-0.123161
412.751232,-0.122727
410.822488,-0.122349
408.893744,-0.123186
406.964999,-0.12518
405.036255,-0.127416
403.107511,-0.128919
401.178767,-0.129187
399.250023,-0.127762
