3996.35772,0.010911
3994.428976,0.010871
3992.500232,0.0107
3990.571488,0.010568
3988.642744,0.010492
3986.714,0.010468
3984.785256,0.010557
3982.856511,0.010656
3980.927767,0.010762
3978.999023,0.010969
3977.070279,0.011114
3975.141535,0.011078
3973.212791,0.011075
3971.284047,0.011263
3969.355303,0.011421
3967.426559,0.011356
3965.497815,0.011223
3963.569071,0.01113
3961.640327,0.011027
3959.711583,0.010964
3957.782839,0.010914
3955.854094,0.010798
3953.92535,0.010789
3951.996606,0.010985
3950.067862,0.011131
3948.139118,0.011113
3946.210374,0.011066
3944.28163,0.011018
3942.352886,0.01093
3940.424142,0.010843
3938.495398,0.010862
3936.566654,0.010977
3934.63791,0.010992
3932.709166,0.010831
3930.780422,0.010673
3928.851677,0.010702
3926.922933,0.010847
3924.994189,0.010874
3923.065445,0.010702
3921.136701,0.010579
3919.207957,0.010718
3917.279213,0.010967
3915.350469,0.011074
3913.421725,0.010937
3911.492981,0.010709
3909.564237,0.010613
3907.635493,0.010573
3905.706749,0.010529
3903.778004,0.010612
3901.84926,0.010742
3899.920516,0.010732
3897.991772,0.010609
3896.063028,0.010514
3894.134284,0.010553
3892.20554,0.010702
3890.276796,0.010834
3888.348052,0.010924
3886.419308,0.011013
3884.490564,0.011003
3882.56182,0.010828
3880.633076,0.010609
3878.704332,0.010478
3876.775587,0.010485
3874.846843,0.010641
3872.918099,0.010886
3870.989355,0.01109
3869.060611,0.011168
3867.131867,0.011061
3865.203123,0.010782
3863.274379,0.010534
3861.345635,0.010405
3859.416891,0.010362
3857.488147,0.010477
3855.559403,0.010685
3853.630659,0.010811
3851.701915,0.010783
3849.77317,0.01061
3847.844426,0.010416
3845.915682,0.010365
3843.986938,0.01047
3842.058194,0.010655
3840.12945,0.01079
3838.200706,0.01071
3836.271962,0.010544
3834.343218,0.010561
3832.414474,0.010672
3830.48573,0.010638
3828.556986,0.010441
3826.628242,0.010192
3824.699497,0.01004
3822.770753,0.01012
3820.842009,0.010316
3818.913265,0.010447
3816.984521,0.010522
3815.055777,0.010484
3813.127033,0.010357
3811.198289,0.010325
3809.269545,0.010347
3807.340801,0.010283
3805.412057,0.010214
3803.483313,0.010217
3801.554569,0.010218
3799.625825,0.010281
3797.69708,0.010485
3795.768336,0.010634
3793.839592,0.010549
3791.910848,0.010347
3789.982104,0.010195
3788.05336,0.010129
3786.124616,0.010189
3784.195872,0.010276
3782.267128,0.010265
3780.338384,0.010331
3778.40964,0.010529
3776.480896,0.010599
3774.552152,0.010458
3772.623408,0.010295
3770.694663,0.010259
3768.765919,0.010307
3766.837175,0.010361
3764.908431,0.010354
3762.979687,0.010207
3761.050943,0.01003
3759.122199,0.010009
3757.193455,0.010056
3755.264711,0.010059
3753.335967,0.010135
3751.407223,0.010244
3749.478479,0.010253
3747.549735,0.010319
3745.62099,0.010434
3743.692246,0.010369
3741.763502,0.010216
3739.834758,0.010117
3737.906014,0.010005
3735.97727,0.009936
3734.048526,0.009967
3732.119782,0.00988
3730.191038,0.009725
3728.262294,0.00989
3726.33355,0.010205
3724.404806,0.010256
3722.476062,0.010196
3720.547318,0.010147
3718.618573,0.01
3716.689829,0.009898
3714.761085,0.009982
3712.832341,0.010144
3710.903597,0.010259
3708.974853,0.01028
3707.046109,0.010196
3705.117365,0.010062
3703.188621,0.009958
3701.259877,0.009935
3699.331133,0.01001
3697.402389,0.01006
3695.473645,0.010034
3693.5449,0.010082
3691.616156,0.010173
3689.687412,0.010173
3687.758668,0.010112
3685.829924,0.010109
3683.90118,0.010286
3681.972436,0.010504
3680.043692,0.010593
3678.114948,0.010638
3676.186204,0.01058
3674.25746,0.010363
3672.328716,0.010257
3670.399972,0.01042
3668.471228,0.010666
3666.542483,0.010754
3664.613739,0.010668
3662.684995,0.01051
3660.756251,0.010451
3658.827507,0.010508
3656.898763,0.010565
3654.970019,0.010759
3653.041275,0.011153
3651.112531,0.011523
3649.183787,0.011681
3647.255043,0.01164
3645.326299,0.011633
3643.397555,0.011787
3641.468811,0.012006
3639.540066,0.012192
3637.611322,0.012317
3635.682578,0.012409
3633.753834,0.012539
3631.82509,0.012699
3629.896346,0.012792
3627.967602,0.012867
3626.038858,0.013063
3624.110114,0.013341
3622.18137,0.013567
3620.252626,0.013674
3618.323882,0.01367
3616.395138,0.013654
3614.466393,0.013831
3612.537649,0.014234
3610.608905,0.014607
3608.680161,0.0148
3606.751417,0.014903
3604.822673,0.014996
3602.893929,0.015165
3600.965185,0.015447
3599.036441,0.015619
3597.107697,0.015596
3595.178953,0.015701
3593.250209,0.016039
3591.321465,0.016367
3589.392721,0.016661
3587.463976,0.016979
3585.535232,0.017169
3583.606488,0.017217
3581.677744,0.017348
3579.749,0.017605
3577.820256,0.017823
3575.891512,0.017995
3573.962768,0.018193
3572.034024,0.018385
3570.10528,0.018623
3568.176536,0.018952
3566.247792,0.01928
3564.319048,0.019598
3562.390304,0.019908
3560.461559,0.02018
3558.532815,0.020463
3556.604071,0.020774
3554.675327,0.021104
3552.746583,0.021391
3550.817839,0.021525
3548.889095,0.02159
3546.960351,0.02183
3545.031607,0.022294
3543.102863,0.022741
3541.174119,0.023015
3539.245375,0.023251
3537.316631,0.0236
3535.387886,0.024004
3533.459142,0.024272
3531.530398,0.024391
3529.601654,0.024556
3527.67291,0.024802
3525.744166,0.025086
3523.815422,0.025459
3521.886678,0.025831
3519.957934,0.026127
3518.02919,0.026473
3516.100446,0.026815
3514.171702,0.026986
3512.242958,0.027118
3510.314214,0.027359
3508.385469,0.027696
3506.456725,0.028191
3504.527981,0.028768
3502.599237,0.029158
3500.670493,0.029357
3498.741749,0.029592
3496.813005,0.029958
3494.884261,0.030335
3492.955517,0.030652
3491.026773,0.031081
3489.098029,0.031635
3487.169285,0.031983
3485.240541,0.032076
3483.311796,0.032304
3481.383052,0.032807
3479.454308,0.033362
3477.525564,0.033865
3475.59682,0.034308
3473.668076,0.034625
3471.739332,0.034829
3469.810588,0.035077
3467.881844,0.035542
3465.9531,0.036132
3464.024356,0.036576
3462.095612,0.036892
3460.166868,0.037257
3458.238124,0.037625
3456.309379,0.037894
3454.380635,0.038105
3452.451891,0.038408
3450.523147,0.038904
3448.594403,0.039372
3446.665659,0.039666
3444.736915,0.040088
3442.808171,0.040664
3440.879427,0.041014
3438.950683,0.041233
3437.021939,0.04174
3435.093195,0.042439
3433.164451,0.042922
3431.235707,0.043147
3429.306962,0.0434
3427.378218,0.043872
3425.449474,0.044418
3423.52073,0.044835
3421.591986,0.045194
3419.663242,0.045578
3417.734498,0.045931
3415.805754,0.046271
3413.87701,0.046635
3411.948266,0.046974
3410.019522,0.047273
3408.090778,0.047595
3406.162034,0.047947
3404.233289,0.048307
3402.304545,0.048653
3400.375801,0.048911
3398.447057,0.049147
3396.518313,0.049458
3394.589569,0.04975
3392.660825,0.050012
3390.732081,0.050261
3388.803337,0.05043
3386.874593,0.05066
3384.945849,0.051024
3383.017105,0.051378
3381.088361,0.051719
3379.159617,0.052058
3377.230872,0.052358
3375.302128,0.052676
3373.373384,0.053002
3371.44464,0.053341
3369.515896,0.053789
3367.587152,0.054275
3365.658408,0.054655
3363.729664,0.054995
3361.80092,0.055363
3359.872176,0.055734
3357.943432,0.056237
3356.014688,0.056922
3354.085944,0.057506
3352.1572,0.05777
3350.228455,0.057881
3348.299711,0.058182
3346.370967,0.058767
3344.442223,0.059426
3342.513479,0.059941
3340.584735,0.060231
3338.655991,0.060393
3336.727247,0.060598
3334.798503,0.060848
3332.869759,0.061027
3330.941015,0.061041
3329.012271,0.060964
3327.083527,0.060974
3325.154782,0.060955
3323.226038,0.060693
3321.297294,0.060327
3319.36855,0.060042
3317.439806,0.059794
3315.511062,0.059588
3313.582318,0.059533
3311.653574,0.059559
3309.72483,0.059512
3307.796086,0.059426
3305.867342,0.059435
3303.938598,0.059629
3302.009854,0.059852
3300.08111,0.05989
3298.152365,0.059922
3296.223621,0.060022
3294.294877,0.059914
3292.366133,0.059691
3290.437389,0.059702
3288.508645,0.059911
3286.579901,0.059998
3284.651157,0.059849
3282.722413,0.059723
3280.793669,0.05977
3278.864925,0.059757
3276.936181,0.059567
3275.007437,0.059323
3273.078692,0.059101
3271.149948,0.058923
3269.221204,0.058749
3267.29246,0.058446
3265.363716,0.057982
3263.434972,0.057536
3261.506228,0.057205
3259.577484,0.056778
3257.64874,0.056138
3255.719996,0.055476
3253.791252,0.05494
3251.862508,0.054548
3249.933764,0.054222
3248.00502,0.053845
3246.076275,0.053442
3244.147531,0.053073
3242.218787,0.052691
3240.290043,0.052263
3238.361299,0.051851
3236.432555,0.051513
3234.503811,0.051208
3232.575067,0.050825
3230.646323,0.050301
3228.717579,0.049754
3226.788835,0.049313
3224.860091,0.048936
3222.931347,0.048699
3221.002603,0.048573
3219.073858,0.048188
3217.145114,0.047574
3215.21637,0.047173
3213.287626,0.046956
3211.358882,0.04665
3209.430138,0.046271
3207.501394,0.04585
3205.57265,0.045398
3203.643906,0.045024
3201.715162,0.044702
3199.786418,0.044321
3197.857674,0.043918
3195.92893,0.043613
3194.000185,0.043387
3192.071441,0.0431
3190.142697,0.042736
3188.213953,0.042386
3186.285209,0.042038
3184.356465,0.041635
3182.427721,0.04119
3180.498977,0.040738
3178.570233,0.040317
3176.641489,0.040023
3174.712745,0.039838
3172.784001,0.039587
3170.855257,0.039254
3168.926513,0.039034
3166.997768,0.038946
3165.069024,0.038756
3163.14028,0.038334
3161.211536,0.037871
3159.282792,0.037566
3157.354048,0.037327
3155.425304,0.037059
3153.49656,0.036802
3151.567816,0.036496
3149.639072,0.036067
3147.710328,0.035597
3145.781584,0.03525
3143.85284,0.035032
3141.924096,0.034794
3139.995351,0.03456
3138.066607,0.034427
3136.137863,0.034318
3134.209119,0.034074
3132.280375,0.033692
3130.351631,0.033368
3128.422887,0.033128
3126.494143,0.03283
3124.565399,0.032512
3122.636655,0.032231
3120.707911,0.031957
3118.779167,0.03172
3116.850423,0.031537
3114.921678,0.031348
3112.992934,0.031143
3111.06419,0.030958
3109.135446,0.030749
3107.206702,0.030487
3105.277958,0.030282
3103.349214,0.030204
3101.42047,0.030074
3099.491726,0.029716
3097.562982,0.02931
3095.634238,0.029083
3093.705494,0.028978
3091.77675,0.028976
3089.848006,0.029046
3087.919261,0.029005
3085.990517,0.028871
3084.061773,0.028677
3082.133029,0.028354
3080.204285,0.028052
3078.275541,0.02793
3076.346797,0.027937
3074.418053,0.027971
3072.489309,0.027981
3070.560565,0.027977
3068.631821,0.02795
3066.703077,0.027874
3064.774333,0.027779
3062.845589,0.027714
3060.916844,0.027679
3058.9881,0.027633
3057.059356,0.027544
3055.130612,0.027427
3053.201868,0.027315
3051.273124,0.027217
3049.34438,0.027144
3047.415636,0.027155
3045.486892,0.02725
3043.558148,0.027309
3041.629404,0.027284
3039.70066,0.027171
3037.771916,0.026897
3035.843171,0.02651
3033.914427,0.026199
3031.985683,0.026062
3030.056939,0.026047
3028.128195,0.025986
3026.199451,0.025803
3024.270707,0.025614
3022.341963,0.025443
3020.413219,0.02519
3018.484475,0.024862
3016.555731,0.024604
3014.626987,0.02452
3012.698243,0.024568
3010.769499,0.024621
3008.840754,0.024601
3006.91201,0.024572
3004.983266,0.024626
3003.054522,0.02477
3001.125778,0.025015
2999.197034,0.025311
2997.26829,0.025541
2995.339546,0.025723
2993.410802,0.025939
2991.482058,0.026253
2989.553314,0.026787
2987.62457,0.027558
2985.695826,0.02845
2983.767081,0.029437
2981.838337,0.030604
2979.909593,0.032015
2977.980849,0.033661
2976.052105,0.035531
2974.123361,0.037681
2972.194617,0.040248
2970.265873,0.043343
2968.337129,0.046809
2966.408385,0.050368
2964.479641,0.054022
2962.550897,0.057903
2960.622153,0.061841
2958.693409,0.065507
2956.764664,0.06893
2954.83592,0.072238
2952.907176,0.07534
2950.978432,0.078224
2949.049688,0.080944
2947.120944,0.083501
2945.1922,0.085962
2943.263456,0.088518
2941.334712,0.091407
2939.405968,0.094666
2937.477224,0.098286
2935.54848,0.102471
2933.619736,0.107276
2931.690992,0.112491
2929.762247,0.118013
2927.833503,0.123808
2925.904759,0.129724
2923.976015,0.135627
2922.047271,0.141365
2920.118527,0.146554
2918.189783,0.150514
2916.261039,0.152326
2914.332295,0.151385
2912.403551,0.147982
2910.474807,0.143068
2908.546063,0.137731
2906.617319,0.132736
2904.688574,0.128211
2902.75983,0.12404
2900.831086,0.120234
2898.902342,0.116779
2896.973598,0.113524
2895.044854,0.110179
2893.11611,0.10658
2891.187366,0.102863
2889.258622,0.099285
2887.329878,0.096013
2885.401134,0.092958
2883.47239,0.090041
2881.543646,0.087449
2879.614902,0.085407
2877.686157,0.084022
2875.757413,0.083322
2873.828669,0.08322
2871.899925,0.083387
2869.971181,0.083526
2868.042437,0.083677
2866.113693,0.083982
2864.184949,0.084641
2862.256205,0.08602
2860.327461,0.088406
2858.398717,0.091907
2856.469973,0.096599
2854.541229,0.10255
2852.612485,0.109602
2850.68374,0.116446
2848.754996,0.119918
2846.826252,0.117246
2844.897508,0.109093
2842.968764,0.098535
2841.04002,0.088177
2839.111276,0.07922
2837.182532,0.071838
2835.253788,0.065803
2833.325044,0.060886
2831.3963,0.056783
2829.467556,0.05334
2827.538812,0.05064
2825.610067,0.048517
2823.681323,0.046629
2821.752579,0.044931
2819.823835,0.04352
2817.895091,0.042314
2815.966347,0.041194
2814.037603,0.040153
2812.108859,0.039189
2810.180115,0.038302
2808.251371,0.03748
2806.322627,0.036705
2804.393883,0.036033
2802.465139,0.035477
2800.536395,0.034994
2798.60765,0.034565
2796.678906,0.034103
2794.750162,0.033559
2792.821418,0.033062
2790.892674,0.032706
2788.96393,0.032383
2787.035186,0.031962
2785.106442,0.031473
2783.177698,0.031087
2781.248954,0.030855
2779.32021,0.030626
2777.391466,0.030273
2775.462722,0.029829
2773.533977,0.029459
2771.605233,0.029274
2769.676489,0.029176
2767.747745,0.028985
2765.819001,0.028656
2763.890257,0.028358
2761.961513,0.028245
2760.032769,0.028254
2758.104025,0.028227
2756.175281,0.028107
2754.246537,0.02795
2752.317793,0.027806
2750.389049,0.027709
2748.460305,0.027653
2746.53156,0.027592
2744.602816,0.027504
2742.674072,0.027398
2740.745328,0.027307
2738.816584,0.027255
2736.88784,0.027267
2734.959096,0.027287
2733.030352,0.027196
2731.101608,0.027062
2729.172864,0.026974
2727.24412,0.026902
2725.315376,0.026868
2723.386632,0.026864
2721.457888,0.026755
2719.529143,0.026553
2717.600399,0.026415
2715.671655,0.026335
2713.742911,0.026227
2711.814167,0.026089
2709.885423,0.025954
2707.956679,0.025863
2706.027935,0.02578
2704.099191,0.025607
2702.170447,0.025356
2700.241703,0.025174
2698.312959,0.025174
2696.384215,0.025237
2694.45547,0.02518
2692.526726,0.025046
2690.597982,0.024948
2688.669238,0.024866
2686.740494,0.024833
2684.81175,0.024852
2682.883006,0.024794
2680.954262,0.024681
2679.025518,0.024633
2677.096774,0.024611
2675.16803,0.024532
2673.239286,0.024456
2671.310542,0.024445
2669.381798,0.024448
2667.453053,0.024442
2665.524309,0.024413
2663.595565,0.024326
2661.666821,0.024202
2659.738077,0.024056
2657.809333,0.023879
2655.880589,0.023716
2653.951845,0.023615
2652.023101,0.023546
2650.094357,0.023443
2648.165613,0.023299
2646.236869,0.023157
2644.308125,0.022991
2642.379381,0.022804
2640.450636,0.022708
2638.521892,0.022691
2636.593148,0.022628
2634.664404,0.022496
2632.73566,0.022299
2630.806916,0.022071
2628.878172,0.021895
2626.949428,0.02175
2625.020684,0.021616
2623.09194,0.02157
2621.163196,0.021519
2619.234452,0.021313
2617.305708,0.021071
2615.376963,0.020926
2613.448219,0.020793
2611.519475,0.020622
2609.590731,0.020517
2607.661987,0.020482
2605.733243,0.020379
2603.804499,0.020179
2601.875755,0.020038
2599.947011,0.020045
2598.018267,0.02
2596.089523,0.019794
2594.160779,0.019601
2592.232035,0.019494
2590.303291,0.019448
2588.374546,0.019366
2586.445802,0.019108
2584.517058,0.018837
2582.588314,0.018792
2580.65957,0.018876
2578.730826,0.018932
2576.802082,0.018961
2574.873338,0.018927
2572.944594,0.018842
2571.01585,0.018789
2569.087106,0.018711
2567.158362,0.018577
2565.229618,0.01844
2563.300874,0.018348
2561.372129,0.018393
2559.443385,0.018522
2557.514641,0.018527
2555.585897,0.018384
2553.657153,0.018228
2551.728409,0.01807
2549.799665,0.017831
2547.870921,0.017636
2545.942177,0.017624
2544.013433,0.017685
2542.084689,0.017733
2540.155945,0.017805
2538.227201,0.017908
2536.298456,0.017976
2534.369712,0.017919
2532.440968,0.017801
2530.512224,0.017738
2528.58348,0.017685
2526.654736,0.017577
2524.725992,0.017462
2522.797248,0.017394
2520.868504,0.017285
2518.93976,0.017071
2517.011016,0.016968
2515.082272,0.017067
2513.153528,0.017162
2511.224784,0.017221
2509.296039,0.017284
2507.367295,0.017213
2505.438551,0.017001
2503.509807,0.016843
2501.581063,0.016813
2499.652319,0.016785
2497.723575,0.016674
2495.794831,0.016574
2493.866087,0.016541
2491.937343,0.016529
2490.008599,0.016546
2488.079855,0.016541
2486.151111,0.016444
2484.222366,0.016352
2482.293622,0.016338
2480.364878,0.016329
2478.436134,0.016351
2476.50739,0.016435
2474.578646,0.016435
2472.649902,0.016329
2470.721158,0.016243
2468.792414,0.016276
2466.86367,0.016438
2464.934926,0.016452
2463.006182,0.016173
2461.077438,0.015969
2459.148694,0.016087
2457.219949,0.016284
2455.291205,0.016286
2453.362461,0.016157
2451.433717,0.016105
2449.504973,0.016177
2447.576229,0.016189
2445.647485,0.015982
2443.718741,0.015727
2441.789997,0.015681
2439.861253,0.015804
2437.932509,0.015869
2436.003765,0.015837
2434.075021,0.01582
2432.146277,0.015804
2430.217532,0.01581
2428.288788,0.015867
2426.360044,0.015866
2424.4313,0.01582
2422.502556,0.015829
2420.573812,0.015834
2418.645068,0.015687
2416.716324,0.01549
2414.78758,0.015518
2412.858836,0.015709
2410.930092,0.015789
2409.001348,0.015668
2407.072604,0.015514
2405.143859,0.015573
2403.215115,0.01575
2401.286371,0.015778
2399.357627,0.015683
2397.428883,0.015676
2395.500139,0.015831
2393.571395,0.016013
2391.642651,0.016109
2389.713907,0.016078
2387.785163,0.015926
2385.856419,0.015806
2383.927675,0.015799
2381.998931,0.015869
2380.070187,0.016024
2378.141442,0.016206
2376.212698,0.016311
2374.283954,0.01636
2372.35521,0.016441
2370.426466,0.016536
2368.497722,0.016628
2366.568978,0.016754
2364.640234,0.016892
2362.71149,0.016975
2360.782746,0.016946
2358.854002,0.016825
2356.925258,0.016718
2354.996514,0.016724
2353.06777,0.01682
2351.139025,0.016842
2349.210281,0.016775
2347.281537,0.016751
2345.352793,0.016796
2343.424049,0.016883
2341.495305,0.016956
2339.566561,0.016953
2337.637817,0.016916
2335.709073,0.016955
2333.780329,0.017047
2331.851585,0.01701
2329.922841,0.016854
2327.994097,0.016843
2326.065352,0.01701
2324.136608,0.017035
2322.207864,0.016783
2320.27912,0.016474
2318.350376,0.016279
2316.421632,0.016143
2314.492888,0.015895
2312.564144,0.015546
2310.6354,0.01531
2308.706656,0.015229
2306.777912,0.015189
2304.849168,0.015132
2302.920424,0.015053
2300.99168,0.014956
2299.062935,0.01482
2297.134191,0.014647
2295.205447,0.014539
2293.276703,0.014545
2291.347959,0.014528
2289.419215,0.014451
2287.490471,0.014341
2285.561727,0.013986
2283.632983,0.013422
2281.704239,0.0131
2279.775495,0.01311
2277.846751,0.013141
2275.918007,0.012884
2273.989262,0.012368
2272.060518,0.012164
2270.131774,0.012428
2268.20303,0.01259
2266.274286,0.012392
2264.345542,0.012089
2262.416798,0.012047
2260.488054,0.012306
2258.55931,0.012422
2256.630566,0.012082
2254.701822,0.011456
2252.773078,0.010875
2250.844334,0.01056
2248.91559,0.010602
2246.986845,0.010929
2245.058101,0.011263
2243.129357,0.01125
2241.200613,0.010944
2239.271869,0.010777
2237.343125,0.010727
2235.414381,0.010454
2233.485637,0.010007
2231.556893,0.009624
2229.628149,0.00936
2227.699405,0.009107
2225.770661,0.008884
2223.841917,0.008896
2221.913173,0.009025
2219.984428,0.008862
2218.055684,0.008627
2216.12694,0.008751
2214.198196,0.008803
2212.269452,0.008491
2210.340708,0.008277
2208.411964,0.00827
2206.48322,0.008315
2204.554476,0.008356
2202.625732,0.008112
2200.696988,0.007681
2198.768244,0.007403
2196.8395,0.00719
2194.910755,0.007097
2192.982011,0.00719
2191.053267,0.007121
2189.124523,0.007021
2187.195779,0.007352
2185.267035,0.007789
2183.338291,0.007795
2181.409547,0.007495
2179.480803,0.007196
2177.552059,0.006789
2175.623315,0.006056
2173.694571,0.005444
2171.765827,0.005576
2169.837083,0.006136
2167.908338,0.006392
2165.979594,0.006147
2164.05085,0.005648
2162.122106,0.005077
2160.193362,0.00456
2158.264618,0.004376
2156.335874,0.004596
2154.40713,0.004911
2152.478386,0.005182
2150.549642,0.005659
2148.620898,0.006291
2146.692154,0.006645
2144.76341,0.006683
2142.834666,0.006655
2140.905921,0.006755
2138.977177,0.007133
2137.048433,0.00771
2135.119689,0.008239
2133.190945,0.008659
2131.262201,0.009053
2129.333457,0.009422
2127.404713,0.009804
2125.475969,0.010219
2123.547225,0.010582
2121.618481,0.010728
2119.689737,0.010547
2117.760993,0.010335
2115.832248,0.010398
2113.903504,0.010535
2111.97476,0.01045
2110.046016,0.010142
2108.117272,0.009823
2106.188528,0.00966
2104.259784,0.00967
2102.33104,0.009844
2100.402296,0.010116
2098.473552,0.010261
2096.544808,0.010017
2094.616064,0.009461
2092.68732,0.009145
2090.758576,0.009355
2088.829831,0.009728
2086.901087,0.009843
2084.972343,0.009723
2083.043599,0.009655
2081.114855,0.009642
2079.186111,0.009604
2077.257367,0.009563
2075.328623,0.009277
2073.399879,0.008819
2071.471135,0.008593
2069.542391,0.008399
2067.613647,0.007959
2065.684903,0.007549
2063.756158,0.007399
2061.827414,0.007331
2059.89867,0.007194
2057.969926,0.007143
2056.041182,0.00728
2054.112438,0.007375
2052.183694,0.007174
2050.25495,0.006676
2048.326206,0.006094
2046.397462,0.005608
2044.468718,0.005092
2042.539974,0.004693
2040.61123,0.004703
2038.682486,0.004659
2036.753741,0.004306
2034.824997,0.003916
2032.896253,0.003538
2030.967509,0.00345
2029.038765,0.003619
2027.110021,0.003549
2025.181277,0.003369
2023.252533,0.003282
2021.323789,0.003146
2019.395045,0.003127
2017.466301,0.00333
2015.537557,0.003415
2013.608813,0.003389
2011.680069,0.003617
2009.751324,0.004003
2007.82258,0.004264
2005.893836,0.004509
2003.965092,0.004791
2002.036348,0.004892
2000.107604,0.004821
1998.17886,0.004731
1996.250116,0.004723
1994.321372,0.004879
1992.392628,0.00502
1990.463884,0.00489
1988.53514,0.004592
1986.606396,0.004412
1984.677651,0.00438
1982.748907,0.004264
1980.820163,0.003934
1978.891419,0.003704
1976.962675,0.004074
1975.033931,0.004545
1973.105187,0.004321
1971.176443,0.003885
1969.247699,0.00377
1967.318955,0.003822
1965.390211,0.004088
1963.461467,0.004461
1961.532723,0.004714
1959.603979,0.005216
1957.675234,0.005983
1955.74649,0.006492
1953.817746,0.00682
1951.889002,0.007176
1949.960258,0.007513
1948.031514,0.007746
1946.10277,0.007739
1944.174026,0.007641
1942.245282,0.00763
1940.316538,0.007701
1938.387794,0.007886
1936.45905,0.00808
1934.530306,0.008116
1932.601562,0.008099
1930.672817,0.008308
1928.744073,0.008625
1926.815329,0.008807
1924.886585,0.009037
1922.957841,0.00937
1921.029097,0.00964
1919.100353,0.009882
1917.171609,0.010131
1915.242865,0.010273
1913.314121,0.010279
1911.385377,0.010295
1909.456633,0.010382
1907.527889,0.010462
1905.599144,0.010564
1903.6704,0.010736
1901.741656,0.010887
1899.812912,0.010841
1897.884168,0.010635
1895.955424,0.010594
1894.02668,0.01084
1892.097936,0.011219
1890.169192,0.011577
1888.240448,0.011756
1886.311704,0.01177
1884.38296,0.011813
1882.454216,0.011929
1880.525472,0.011929
1878.596727,0.011784
1876.667983,0.01186
1874.739239,0.012228
1872.810495,0.012398
1870.881751,0.012274
1868.953007,0.012206
1867.024263,0.01224
1865.095519,0.012242
1863.166775,0.012266
1861.238031,0.012401
1859.309287,0.012498
1857.380543,0.012449
1855.451799,0.012445
1853.523055,0.012548
1851.59431,0.012674
1849.665566,0.012829
1847.736822,0.012909
1845.808078,0.012871
1843.879334,0.012875
1841.95059,0.012979
1840.021846,0.013088
1838.093102,0.013191
1836.164358,0.013313
1834.235614,0.013416
1832.30687,0.013467
1830.378126,0.013499
1828.449382,0.013551
1826.520637,0.013652
1824.591893,0.013804
1822.663149,0.013914
1820.734405,0.013935
1818.805661,0.013974
1816.876917,0.014139
1814.948173,0.014355
1813.019429,0.014492
1811.090685,0.014585
1809.161941,0.014701
1807.233197,0.014832
1805.304453,0.014931
1803.375709,0.014934
1801.446965,0.014922
1799.51822,0.015004
1797.589476,0.015118
1795.660732,0.015178
1793.731988,0.015224
1791.803244,0.015321
1789.8745,0.015421
1787.945756,0.015484
1786.017012,0.015558
1784.088268,0.015678
1782.159524,0.015807
1780.23078,0.015897
1778.302036,0.015965
1776.373292,0.01607
1774.444547,0.016241
1772.515803,0.016488
1770.587059,0.01685
1768.658315,0.017307
1766.729571,0.017805
1764.800827,0.018417
1762.872083,0.019299
1760.943339,0.020597
1759.014595,0.022391
1757.085851,0.024692
1755.157107,0.027439
1753.228363,0.030556
1751.299619,0.033822
1749.370875,0.036637
1747.44213,0.038406
1745.513386,0.038944
1743.584642,0.038379
1741.655898,0.036984
1739.727154,0.035096
1737.79841,0.033089
1735.869666,0.031204
1733.940922,0.029552
1732.012178,0.028247
1730.083434,0.027333
1728.15469,0.026764
1726.225946,0.026416
1724.297202,0.026138
1722.368458,0.025885
1720.439713,0.025742
1718.510969,0.025769
1716.582225,0.025855
1714.653481,0.025869
1712.724737,0.025794
1710.795993,0.025687
1708.867249,0.025612
1706.938505,0.025522
1705.009761,0.02535
1703.081017,0.025187
1701.152273,0.02512
1699.223529,0.025121
1697.294785,0.025144
1695.36604,0.025144
1693.437296,0.025106
1691.508552,0.025096
1689.579808,0.025185
1687.651064,0.025408
1685.72232,0.025724
1683.793576,0.025998
1681.864832,0.026207
1679.936088,0.026477
1678.007344,0.026801
1676.0786,0.027112
1674.149856,0.027443
1672.221112,0.027809
1670.292368,0.028186
1668.363623,0.028576
1666.434879,0.028985
1664.506135,0.02942
1662.577391,0.029839
1660.648647,0.030189
1658.719903,0.030488
1656.791159,0.030762
1654.862415,0.031051
1652.933671,0.031374
1651.004927,0.031624
1649.076183,0.031783
1647.147439,0.03194
1645.218695,0.032017
1643.289951,0.031927
1641.361206,0.03181
1639.432462,0.031767
1637.503718,0.031689
1635.574974,0.031489
1633.64623,0.03122
1631.717486,0.030934
1629.788742,0.03064
1627.859998,0.030357
1625.931254,0.030099
1624.00251,0.029832
1622.073766,0.029498
1620.145022,0.029123
1618.216278,0.02877
1616.287533,0.028429
1614.358789,0.028108
1612.430045,0.027876
1610.501301,0.027744
1608.572557,0.027703
1606.643813,0.027739
1604.715069,0.027772
1602.786325,0.027705
1600.857581,0.027496
1598.928837,0.027182
1597.000093,0.026835
1595.071349,0.026537
1593.142605,0.026335
1591.213861,0.026177
1589.285116,0.026029
1587.356372,0.025943
1585.427628,0.025914
1583.498884,0.025854
1581.57014,0.025713
1579.641396,0.02552
1577.712652,0.025322
1575.783908,0.025099
1573.855164,0.024852
1571.92642,0.02466
1569.997676,0.024511
1568.068932,0.024334
1566.140188,0.024174
1564.211443,0.024078
1562.282699,0.024
1560.353955,0.023961
1558.425211,0.023999
1556.496467,0.024023
1554.567723,0.023969
1552.638979,0.023895
1550.710235,0.023892
1548.781491,0.023948
1546.852747,0.023965
1544.924003,0.023925
1542.995259,0.023897
1541.066515,0.023914
1539.137771,0.023911
1537.209026,0.023833
1535.280282,0.02371
1533.351538,0.023563
1531.422794,0.023445
1529.49405,0.023445
1527.565306,0.023541
1525.636562,0.023597
1523.707818,0.023635
1521.779074,0.023778
1519.85033,0.02397
1517.921586,0.02409
1515.992842,0.024121
1514.064098,0.024105
1512.135354,0.024117
1510.206609,0.02425
1508.277865,0.024574
1506.349121,0.024954
1504.420377,0.02512
1502.491633,0.025141
1500.562889,0.025379
1498.634145,0.026094
1496.705401,0.027254
1494.776657,0.028454
1492.847913,0.029206
1490.919169,0.029485
1488.990425,0.029711
1487.061681,0.030189
1485.132936,0.030887
1483.204192,0.031791
1481.275448,0.033032
1479.346704,0.034974
1477.41796,0.038961
1475.489216,0.046721
1473.560472,0.056437
1471.631728,0.062606
1469.702984,0.06399
1467.77424,0.064565
1465.845496,0.067043
1463.916752,0.071196
1461.988008,0.073992
1460.059264,0.073324
1458.130519,0.071246
1456.201775,0.070054
1454.273031,0.069297
1452.344287,0.068095
1450.415543,0.066522
1448.486799,0.064952
1446.558055,0.063443
1444.629311,0.061815
1442.700567,0.060102
1440.771823,0.058584
1438.843079,0.057446
1436.914335,0.056586
1434.985591,0.055784
1433.056847,0.054929
1431.128102,0.053967
1429.199358,0.052866
1427.270614,0.0517
1425.34187,0.050531
1423.413126,0.04937
1421.484382,0.048248
1419.555638,0.047185
1417.626894,0.046195
1415.69815,0.045318
1413.769406,0.044623
1411.840662,0.044131
1409.911918,0.043759
1407.983174,0.043401
1406.054429,0.043016
1404.125685,0.042608
1402.196941,0.042195
1400.268197,0.041846
1398.339453,0.041633
1396.410709,0.041572
1394.481965,0.041682
1392.553221,0.042044
1390.624477,0.042776
1388.695733,0.044026
1386.766989,0.04593
1384.838245,0.048491
1382.909501,0.0517
1380.980757,0.055575
1379.052012,0.059678
1377.123268,0.062981
1375.194524,0.064661
1373.26578,0.064821
1371.337036,0.064166
1369.408292,0.063312
1367.479548,0.062591
1365.550804,0.062083
1363.62206,0.061596
1361.693316,0.060845
1359.764572,0.05984
1357.835828,0.058835
1355.907084,0.057969
1353.97834,0.057213
1352.049595,0.056551
1350.120851,0.056105
1348.192107,0.056065
1346.263363,0.056548
1344.334619,0.057518
1342.405875,0.058777
1340.477131,0.060021
1338.548387,0.060956
1336.619643,0.061411
1334.690899,0.061323
1332.762155,0.060748
1330.833411,0.059977
1328.904667,0.05941
1326.975922,0.059348
1325.047178,0.059993
1323.118434,0.061347
1321.18969,0.06312
1319.260946,0.064939
1317.332202,0.066439
1315.403458,0.067265
1313.474714,0.067284
1311.54597,0.066632
1309.617226,0.065524
1307.688482,0.064082
1305.759738,0.062362
1303.830994,0.06053
1301.90225,0.058826
1299.973505,0.057391
1298.044761,0.056257
1296.116017,0.055463
1294.187273,0.054989
1292.258529,0.054653
1290.329785,0.054359
1288.401041,0.054274
1286.472297,0.054491
1284.543553,0.054869
1282.614809,0.05522
1280.686065,0.055413
1278.757321,0.055452
1276.828577,0.055431
1274.899832,0.055341
1272.971088,0.055208
1271.042344,0.05526
1269.1136,0.055683
1267.184856,0.056376
1265.256112,0.057056
1263.327368,0.057478
1261.398624,0.057513
1259.46988,0.057223
1257.541136,0.056858
1255.612392,0.056629
1253.683648,0.056635
1251.754904,0.056978
1249.82616,0.05758
1247.897415,0.058103
1245.968671,0.058296
1244.039927,0.058157
1242.111183,0.057735
1240.182439,0.057154
1238.253695,0.056644
1236.324951,0.056205
1234.396207,0.055637
1232.467463,0.054875
1230.538719,0.053985
1228.609975,0.053067
1226.681231,0.052179
1224.752487,0.051299
1222.823743,0.050419
1220.894998,0.049622
1218.966254,0.049082
1217.03751,0.048934
1215.108766,0.049123
1213.180022,0.049616
1211.251278,0.050546
1209.322534,0.051841
1207.39379,0.053036
1205.465046,0.053667
1203.536302,0.053698
1201.607558,0.053369
1199.678814,0.052766
1197.75007,0.051878
1195.821325,0.050845
1193.892581,0.049879
1191.963837,0.049152
1190.035093,0.048748
1188.106349,0.048707
1186.177605,0.049069
1184.248861,0.049833
1182.320117,0.051009
1180.391373,0.052621
1178.462629,0.054683
1176.533885,0.057324
1174.605141,0.060741
1172.676397,0.065016
1170.747653,0.070118
1168.818908,0.075849
1166.890164,0.081687
1164.96142,0.086874
1163.032676,0.090731
1161.103932,0.092908
1159.175188,0.093462
1157.246444,0.092695
1155.3177,0.090964
1153.388956,0.088633
1151.460212,0.086066
1149.531468,0.08351
1147.602724,0.080934
1145.67398,0.078239
1143.745236,0.075586
1141.816491,0.073284
1139.887747,0.071631
1137.959003,0.070909
1136.030259,0.071243
1134.101515,0.07252
1132.172771,0.074578
1130.244027,0.07738
1128.315283,0.080937
1126.386539,0.085084
1124.457795,0.089413
1122.529051,0.093583
1120.600307,0.097692
1118.671563,0.102163
1116.742818,0.107181
1114.814074,0.11229
1112.88533,0.11666
1110.956586,0.119808
1109.027842,0.121943
1107.099098,0.123514
1105.170354,0.124618
1103.24161,0.125042
1101.312866,0.124724
1099.384122,0.123881
1097.455378,0.122671
1095.526634,0.121059
1093.59789,0.119146
1091.669146,0.117321
1089.740401,0.115965
1087.811657,0.11516
1085.882913,0.114813
1083.954169,0.114931
1082.025425,0.115654
1080.096681,0.117089
1078.167937,0.119101
1076.239193,0.121369
1074.310449,0.123735
1072.381705,0.126294
1070.452961,0.12922
1068.524217,0.132776
1066.595473,0.137263
1064.666728,0.142669
1062.737984,0.148518
1060.80924,0.154083
1058.880496,0.158641
1056.951752,0.161843
1055.023008,0.163896
1053.094264,0.165103
1051.16552,0.165464
1049.236776,0.164921
1047.308032,0.163702
1045.379288,0.162269
1043.450544,0.16119
1041.5218,0.161091
1039.593056,0.162421
1037.664311,0.165161
1035.735567,0.168672
1033.806823,0.171943
1031.878079,0.174217
1029.949335,0.175333
1028.020591,0.175584
1026.091847,0.175442
1024.163103,0.17529
1022.234359,0.175148
1020.305615,0.174767
1018.376871,0.173936
1016.448127,0.172577
1014.519383,0.170821
1012.590639,0.168988
1010.661894,0.167379
1008.73315,0.166115
1006.804406,0.165211
1004.875662,0.164734
1002.946918,0.164608
1001.018174,0.164433
999.08943,0.163726
997.160686,0.162294
995.231942,0.160449
993.303198,0.158718
991.374454,0.157438
989.44571,0.15677
987.516966,0.156669
985.588221,0.156684
983.659477,0.156062
981.730733,0.154176
979.801989,0.151063
977.873245,0.147422
975.944501,0.143917
974.015757,0.140772
972.087013,0.137933
970.158269,0.135173
968.229525,0.132248
966.300781,0.129091
964.372037,0.125635
962.443293,0.121787
960.514549,0.117664
958.585804,0.113592
956.65706,0.109801
954.728316,0.106265
952.799572,0.102984
950.870828,0.100106
948.942084,0.097672
947.01334,0.095564
945.084596,0.093625
943.155852,0.091764
941.227108,0.089998
939.298364,0.088345
937.36962,0.086767
935.440876,0.085238
933.512132,0.08376
931.583387,0.082299
929.654643,0.080805
927.725899,0.079281
925.797155,0.077845
923.868411,0.076685
921.939667,0.075829
920.010923,0.075143
918.082179,0.074625
916.153435,0.074386
914.224691,0.074449
912.295947,0.07473
910.367203,0.075167
908.438459,0.07584
906.509714,0.076782
904.58097,0.077918
902.652226,0.079208
900.723482,0.080524
898.794738,0.081576
896.865994,0.08206
894.93725,0.081735
893.008506,0.080633
891.079762,0.079139
889.151018,0.077583
887.222274,0.075954
885.29353,0.074223
883.364786,0.072687
881.436042,0.071666
879.507297,0.071121
877.578553,0.070942
875.649809,0.071084
873.721065,0.071229
871.792321,0.07091
869.863577,0.070029
867.934833,0.068884
866.006089,0.067636
864.077345,0.066276
862.148601,0.064998
860.219857,0.064042
858.291113,0.063388
856.362369,0.062924
854.433625,0.062666
852.50488,0.062664
850.576136,0.062845
848.647392,0.063027
846.718648,0.063083
844.789904,0.063049
842.86116,0.063011
840.932416,0.062961
839.003672,0.062808
837.074928,0.062513
835.146184,0.062173
833.21744,0.061903
831.288696,0.061718
829.359952,0.06164
827.431207,0.061798
825.502463,0.062276
823.573719,0.063012
821.644975,0.06403
819.716231,0.065385
817.787487,0.066726
815.858743,0.067604
813.929999,0.068013
812.001255,0.068112
810.072511,0.067969
808.143767,0.067637
806.215023,0.067143
804.286279,0.06662
802.357535,0.066256
800.42879,0.066051
798.500046,0.065989
796.571302,0.066203
794.642558,0.066587
792.713814,0.066807
790.78507,0.066834
788.856326,0.066848
786.927582,0.06686
784.998838,0.066821
783.070094,0.066775
781.14135,0.066756
779.212606,0.066775
777.283862,0.066854
775.355117,0.067013
773.426373,0.067324
771.497629,0.0678
769.568885,0.068365
767.640141,0.068973
765.711397,0.069568
763.782653,0.070182
761.853909,0.070997
759.925165,0.071989
757.996421,0.072837
756.067677,0.073367
754.138933,0.073646
752.210189,0.073784
750.281445,0.074055
748.3527,0.074646
746.423956,0.07533
744.495212,0.075855
742.566468,0.076324
740.637724,0.077012
738.70898,0.078048
736.780236,0.079837
734.851492,0.083671
732.922748,0.090204
730.994004,0.096892
729.06526,0.100382
727.136516,0.101482
725.207772,0.103325
723.279028,0.107604
721.350283,0.114553
719.421539,0.121643
717.492795,0.124577
715.564051,0.122401
713.635307,0.117899
711.706563,0.113913
709.777819,0.111637
707.849075,0.111026
705.920331,0.111797
703.991587,0.113825
702.062843,0.116828
700.134099,0.119704
698.205355,0.120583
696.27661,0.118545
694.347866,0.114825
692.419122,0.111581
690.490378,0.109886
688.561634,0.109271
686.63289,0.109072
684.704146,0.109341
682.775402,0.110196
680.846658,0.111453
678.917914,0.113008
676.98917,0.114948
675.060426,0.117354
673.131682,0.120006
671.202938,0.122438
669.274193,0.124464
667.345449,0.126111
665.416705,0.127293
663.487961,0.128028
661.559217,0.128394
659.630473,0.128307
657.701729,0.127627
655.772985,0.126541
653.844241,0.125634
651.915497,0.125127
649.986753,0.124802
648.058009,0.124684
646.129265,0.124878
644.200521,0.125207
642.271776,0.12554
640.343032,0.126025
638.414288,0.126797
636.485544,0.127843
634.5568,0.129189
632.628056,0.130772
630.699312,0.132346
628.770568,0.133593
626.841824,0.134455
624.91308,0.135566
622.984336,0.137566
621.055592,0.140001
619.126848,0.141979
617.198103,0.143385
615.269359,0.144627
613.340615,0.145854
611.411871,0.146839
609.483127,0.147321
607.554383,0.147255
605.625639,0.146882
603.696895,0.146733
601.768151,0.147057
599.839407,0.147598
597.910663,0.148272
595.981919,0.14907
594.053175,0.149781
592.124431,0.150298
590.195686,0.15061
588.266942,0.150788
586.338198,0.151027
584.409454,0.15143
582.48071,0.151821
580.551966,0.151928
578.623222,0.151758
576.694478,0.151593
574.765734,0.151757
572.83699,0.152295
570.908246,0.153071
568.979502,0.154157
567.050758,0.155599
565.122013,0.157573
563.193269,0.160554
561.264525,0.164148
559.335781,0.166859
557.407037,0.167733
555.478293,0.16716
553.549549,0.165972
551.620805,0.164294
549.692061,0.162041
547.763317,0.16014
545.834573,0.159257
543.905829,0.158668
541.977085,0.157678
540.048341,0.15652
538.119596,0.155811
536.190852,0.155731
534.262108,0.155852
532.333364,0.155866
530.40462,0.155898
528.475876,0.155985
526.547132,0.155922
524.618388,0.155951
522.689644,0.156483
520.7609,0.157087
518.832156,0.157044
516.903412,0.156444
514.974668,0.155746
513.045924,0.154984
511.117179,0.154176
509.188435,0.153606
507.259691,0.153337
505.330947,0.153131
503.402203,0.152872
501.473459,0.152605
499.544715,0.152311
497.615971,0.15194
495.687227,0.151446
493.758483,0.150763
491.829739,0.149747
489.900995,0.148676
487.972251,0.148133
486.043506,0.147672
484.114762,0.146688
482.186018,0.145746
480.257274,0.145172
478.32853,0.144288
476.399786,0.142639
474.471042,0.140818
472.542298,0.139764
470.613554,0.139694
468.68481,0.1401
466.756066,0.140471
464.827322,0.140573
462.898578,0.140489
460.969834,0.140733
459.041089,0.141578
457.112345,0.142673
455.183601,0.143376
453.254857,0.143356
451.326113,0.143325
449.397369,0.144219
447.468625,0.146101
445.539881,0.147967
443.611137,0.148538
441.682393,0.148507
439.753649,0.149815
437.824905,0.152003
435.896161,0.153313
433.967417,0.154142
432.038672,0.154686
430.109928,0.153446
428.181184,0.1506
426.25244,0.147739
424.323696,0.145523
422.394952,0.143737
420.466208,0.142338
418.537464,0.141557
416.60872,0.140879
414.679976,0.139893
412.751232,0.138964
410.822488,0.137931
408.893744,0.136186
406.964999,0.134608
405.036255,0.134665
403.107511,0.135802
401.178767,0.137037
399.250023,0.138284
