3996.35772,0.006426
3994.428976,0.006498
3992.500232,0.00649
3990.571488,0.006367
3988.642744,0.006123
3986.714,0.005925
3984.785256,0.006015
3982.856511,0.006286
3980.927767,0.006451
3978.999023,0.0065
3977.070279,0.006563
3975.141535,0.006593
3973.212791,0.006552
3971.284047,0.006541
3969.355303,0.006606
3967.426559,0.006693
3965.497815,0.00668
3963.569071,0.006517
3961.640327,0.006354
3959.711583,0.006359
3957.782839,0.006443
3955.854094,0.006404
3953.92535,0.006353
3951.996606,0.006412
3950.067862,0.006414
3948.139118,0.006332
3946.210374,0.006247
3944.28163,0.006146
3942.352886,0.006085
3940.424142,0.006063
3938.495398,0.006007
3936.566654,0.005965
3934.63791,0.005968
3932.709166,0.005961
3930.780422,0.006002
3928.851677,0.0062
3926.922933,0.006399
3924.994189,0.006322
3923.065445,0.006055
3921.136701,0.005987
3919.207957,0.006198
3917.279213,0.006428
3915.350469,0.006512
3913.421725,0.006389
3911.492981,0.00616
3909.564237,0.006069
3907.635493,0.006106
3905.706749,0.006097
3903.778004,0.006079
3901.84926,0.006221
3899.920516,0.006446
3897.991772,0.006449
3896.063028,0.006244
3894.134284,0.006125
3892.20554,0.006129
3890.276796,0.006117
3888.348052,0.006032
3886.419308,0.005898
3884.490564,0.00584
3882.56182,0.005908
3880.633076,0.005942
3878.704332,0.005903
3876.775587,0.005991
3874.846843,0.006212
3872.918099,0.006367
3870.989355,0.006365
3869.060611,0.006286
3867.131867,0.006275
3865.203123,0.006252
3863.274379,0.006033
3861.345635,0.005733
3859.416891,0.005612
3857.488147,0.005775
3855.559403,0.006064
3853.630659,0.006158
3851.701915,0.005981
3849.77317,0.005752
3847.844426,0.005684
3845.915682,0.005814
3843.986938,0.005954
3842.058194,0.006023
3840.12945,0.006044
3838.200706,0.005914
3836.271962,0.005719
3834.343218,0.005672
3832.414474,0.0057
3830.48573,0.005667
3828.556986,0.005617
3826.628242,0.0056
3824.699497,0.00561
3822.770753,0.005695
3820.842009,0.005805
3818.913265,0.005852
3816.984521,0.005873
3815.055777,0.00584
3813.127033,0.005768
3811.198289,0.005721
3809.269545,0.005669
3807.340801,0.005617
3805.412057,0.005643
3803.483313,0.005741
3801.554569,0.005792
3799.625825,0.005727
3797.69708,0.005621
3795.768336,0.005616
3793.839592,0.005736
3791.910848,0.005811
3789.982104,0.005679
3788.05336,0.005435
3786.124616,0.005363
3784.195872,0.005508
3782.267128,0.005679
3780.338384,0.005851
3778.40964,0.006032
3776.480896,0.006033
3774.552152,0.0058
3772.623408,0.005567
3770.694663,0.005484
3768.765919,0.005457
3766.837175,0.005389
3764.908431,0.005308
3762.979687,0.005217
3761.050943,0.005119
3759.122199,0.005077
3757.193455,0.005098
3755.264711,0.005204
3753.335967,0.005339
3751.407223,0.005421
3749.478479,0.005575
3747.549735,0.005797
3745.62099,0.005888
3743.692246,0.005824
3741.763502,0.005735
3739.834758,0.005708
3737.906014,0.005684
3735.97727,0.005557
3734.048526,0.005442
3732.119782,0.005379
3730.191038,0.005239
3728.262294,0.005251
3726.33355,0.005576
3724.404806,0.005876
3722.476062,0.005812
3720.547318,0.005403
3718.618573,0.005047
3716.689829,0.005052
3714.761085,0.005254
3712.832341,0.005452
3710.903597,0.005596
3708.974853,0.005463
3707.046109,0.005139
3705.117365,0.005088
3703.188621,0.005279
3701.259877,0.005435
3699.331133,0.005591
3697.402389,0.005753
3695.473645,0.005826
3693.5449,0.005936
3691.616156,0.006081
3689.687412,0.006028
3687.758668,0.005916
3685.829924,0.006134
3683.90118,0.007002
3681.972436,0.009849
3680.043692,0.019214
3678.114948,0.035557
3676.186204,0.044757
3674.25746,0.036329
3672.328716,0.022561
3670.399972,0.014519
3668.471228,0.011416
3666.542483,0.010264
3664.613739,0.009539
3662.684995,0.008944
3660.756251,0.008689
3658.827507,0.008635
3656.898763,0.008524
3654.970019,0.008491
3653.041275,0.008685
3651.112531,0.008875
3649.183787,0.008872
3647.255043,0.008796
3645.326299,0.008766
3643.397555,0.008795
3641.468811,0.008975
3639.540066,0.009109
3637.611322,0.009055
3635.682578,0.00918
3633.753834,0.009547
3631.82509,0.009913
3629.896346,0.010107
3627.967602,0.009966
3626.038858,0.009695
3624.110114,0.009749
3622.18137,0.010145
3620.252626,0.010499
3618.323882,0.010709
3616.395138,0.010942
3614.466393,0.011195
3612.537649,0.011446
3610.608905,0.011692
3608.680161,0.011856
3606.751417,0.011891
3604.822673,0.011864
3602.893929,0.011938
3600.965185,0.012194
3599.036441,0.012497
3597.107697,0.012754
3595.178953,0.013055
3593.250209,0.013371
3591.321465,0.013544
3589.392721,0.013692
3587.463976,0.013973
3585.535232,0.014118
3583.606488,0.014038
3581.677744,0.014153
3579.749,0.014519
3577.820256,0.014777
3575.891512,0.014966
3573.962768,0.015277
3572.034024,0.015563
3570.10528,0.015768
3568.176536,0.016021
3566.247792,0.01622
3564.319048,0.016274
3562.390304,0.0164
3560.461559,0.016676
3558.532815,0.01691
3556.604071,0.017042
3554.675327,0.017176
3552.746583,0.017395
3550.817839,0.017706
3548.889095,0.017981
3546.960351,0.018067
3545.031607,0.018084
3543.102863,0.018293
3541.174119,0.018639
3539.245375,0.018974
3537.316631,0.019334
3535.387886,0.019597
3533.459142,0.019643
3531.530398,0.019706
3529.601654,0.019915
3527.67291,0.020088
3525.744166,0.020227
3523.815422,0.020526
3521.886678,0.020978
3519.957934,0.021349
3518.02919,0.021529
3516.100446,0.021619
3514.171702,0.021692
3512.242958,0.021895
3510.314214,0.022295
3508.385469,0.022643
3506.456725,0.02288
3504.527981,0.023147
3502.599237,0.02338
3500.670493,0.023583
3498.741749,0.023909
3496.813005,0.024271
3494.884261,0.024554
3492.955517,0.024886
3491.026773,0.025269
3489.098029,0.025548
3487.169285,0.025707
3485.240541,0.025763
3483.311796,0.025807
3481.383052,0.026056
3479.454308,0.026502
3477.525564,0.026878
3475.59682,0.027027
3473.668076,0.027079
3471.739332,0.027215
3469.810588,0.027478
3467.881844,0.027818
3465.9531,0.028128
3464.024356,0.028382
3462.095612,0.028636
3460.166868,0.028854
3458.238124,0.02896
3456.309379,0.028999
3454.380635,0.029136
3452.451891,0.029365
3450.523147,0.029494
3448.594403,0.029484
3446.665659,0.029588
3444.736915,0.029987
3442.808171,0.030391
3440.879427,0.030546
3438.950683,0.030692
3437.021939,0.030986
3435.093195,0.031246
3433.164451,0.031441
3431.235707,0.031695
3429.306962,0.031976
3427.378218,0.03235
3425.449474,0.032859
3423.52073,0.03326
3421.591986,0.033558
3419.663242,0.034045
3417.734498,0.034649
3415.805754,0.035098
3413.87701,0.035504
3411.948266,0.036044
3410.019522,0.036605
3408.090778,0.037186
3406.162034,0.037909
3404.233289,0.038638
3402.304545,0.039151
3400.375801,0.039568
3398.447057,0.04004
3396.518313,0.040448
3394.589569,0.040714
3392.660825,0.0408
3390.732081,0.040799
3388.803337,0.040926
3386.874593,0.041067
3384.945849,0.040944
3383.017105,0.040573
3381.088361,0.040225
3379.159617,0.039971
3377.230872,0.039685
3375.302128,0.039435
3373.373384,0.039334
3371.44464,0.039382
3369.515896,0.039538
3367.587152,0.039649
3365.658408,0.039551
3363.729664,0.039381
3361.80092,0.039402
3359.872176,0.039512
3357.943432,0.039576
3356.014688,0.039752
3354.085944,0.039935
3352.1572,0.039911
3350.228455,0.039937
3348.299711,0.040282
3346.370967,0.040748
3344.442223,0.041048
3342.513479,0.041185
3340.584735,0.041365
3338.655991,0.041692
3336.727247,0.042046
3334.798503,0.042374
3332.869759,0.042708
3330.941015,0.042962
3329.012271,0.043151
3327.083527,0.043352
3325.154782,0.043496
3323.226038,0.04351
3321.297294,0.043376
3319.36855,0.043201
3317.439806,0.043185
3315.511062,0.043274
3313.582318,0.043252
3311.653574,0.043185
3309.72483,0.043231
3307.796086,0.043277
3305.867342,0.043208
3303.938598,0.043198
3302.009854,0.043311
3300.08111,0.043339
3298.152365,0.043287
3296.223621,0.043231
3294.294877,0.042987
3292.366133,0.042603
3290.437389,0.042379
3288.508645,0.042312
3286.579901,0.042123
3284.651157,0.041774
3282.722413,0.041574
3280.793669,0.041552
3278.864925,0.041359
3276.936181,0.041025
3275.007437,0.040811
3273.078692,0.04059
3271.149948,0.040255
3269.221204,0.040022
3267.29246,0.039906
3265.363716,0.039659
3263.434972,0.039294
3261.506228,0.039001
3259.577484,0.038722
3257.64874,0.038388
3255.719996,0.038106
3253.791252,0.037977
3251.862508,0.03804
3249.933764,0.038188
3248.00502,0.038298
3246.076275,0.038402
3244.147531,0.038491
3242.218787,0.038572
3240.290043,0.038777
3238.361299,0.03913
3236.432555,0.03948
3234.503811,0.039725
3232.575067,0.039865
3230.646323,0.039984
3228.717579,0.040262
3226.788835,0.040681
3224.860091,0.04104
3222.931347,0.041382
3221.002603,0.04181
3219.073858,0.042147
3217.145114,0.042205
3215.21637,0.042098
3213.287626,0.042026
3211.358882,0.042075
3209.430138,0.042252
3207.501394,0.042349
3205.57265,0.042249
3203.643906,0.042128
3201.715162,0.041927
3199.786418,0.041483
3197.857674,0.040966
3195.92893,0.040574
3194.000185,0.040245
3192.071441,0.039801
3190.142697,0.039212
3188.213953,0.038624
3186.285209,0.03809
3184.356465,0.037529
3182.427721,0.03693
3180.498977,0.036338
3178.570233,0.035794
3176.641489,0.035377
3174.712745,0.035077
3172.784001,0.034756
3170.855257,0.034376
3168.926513,0.034104
3166.997768,0.033985
3165.069024,0.033811
3163.14028,0.033483
3161.211536,0.033063
3159.282792,0.0326
3157.354048,0.032144
3155.425304,0.031712
3153.49656,0.031363
3151.567816,0.031203
3149.639072,0.03111
3147.710328,0.030862
3145.781584,0.030536
3143.85284,0.03025
3141.924096,0.029921
3139.995351,0.02963
3138.066607,0.02956
3136.137863,0.029578
3134.209119,0.029409
3132.280375,0.02911
3130.351631,0.028923
3128.422887,0.028865
3126.494143,0.028851
3124.565399,0.028862
3122.636655,0.028805
3120.707911,0.028597
3118.779167,0.028322
3116.850423,0.028129
3114.921678,0.028031
3112.992934,0.027938
3111.06419,0.027855
3109.135446,0.027784
3107.206702,0.027652
3105.277958,0.027556
3103.349214,0.027538
3101.42047,0.027408
3099.491726,0.027123
3097.562982,0.026863
3095.634238,0.026808
3093.705494,0.026964
3091.77675,0.027146
3089.848006,0.027209
3087.919261,0.027221
3085.990517,0.027329
3084.061773,0.027473
3082.133029,0.027505
3080.204285,0.027487
3078.275541,0.027518
3076.346797,0.027556
3074.418053,0.027597
3072.489309,0.027685
3070.560565,0.027674
3068.631821,0.027441
3066.703077,0.027192
3064.774333,0.0271
3062.845589,0.027064
3060.916844,0.026956
3058.9881,0.026777
3057.059356,0.02664
3055.130612,0.026618
3053.201868,0.026664
3051.273124,0.026724
3049.34438,0.026804
3047.415636,0.026949
3045.486892,0.027174
3043.558148,0.027429
3041.629404,0.027682
3039.70066,0.027906
3037.771916,0.028011
3035.843171,0.028024
3033.914427,0.028083
3031.985683,0.028184
3030.056939,0.028207
3028.128195,0.028109
3026.199451,0.027989
3024.270707,0.027972
3022.341963,0.028041
3020.413219,0.028167
3018.484475,0.028324
3016.555731,0.028375
3014.626987,0.028365
3012.698243,0.028462
3010.769499,0.028631
3008.840754,0.028818
3006.91201,0.029055
3004.983266,0.02933
3003.054522,0.029658
3001.125778,0.03015
2999.197034,0.030839
2997.26829,0.031597
2995.339546,0.032343
2993.410802,0.033076
2991.482058,0.033868
2989.553314,0.034872
2987.62457,0.036047
2985.695826,0.037209
2983.767081,0.038339
2981.838337,0.039551
2979.909593,0.040933
2977.980849,0.042405
2976.052105,0.043793
2974.123361,0.045213
2972.194617,0.046892
2970.265873,0.048751
2968.337129,0.050643
2966.408385,0.052537
2964.479641,0.054417
2962.550897,0.056299
2960.622153,0.058121
2958.693409,0.059734
2956.764664,0.061194
2954.83592,0.062594
2952.907176,0.063824
2950.978432,0.064955
2949.049688,0.066221
2947.120944,0.067735
2945.1922,0.069602
2943.263456,0.071897
2941.334712,0.074643
2939.405968,0.077753
2937.477224,0.081074
2935.54848,0.0846
2933.619736,0.088317
2931.690992,0.092029
2929.762247,0.09552
2927.833503,0.09869
2925.904759,0.10154
2923.976015,0.104131
2922.047271,0.106496
2920.118527,0.108465
2918.189783,0.10912
2916.261039,0.106936
2914.332295,0.101734
2912.403551,0.095342
2910.474807,0.089513
2908.546063,0.084695
2906.617319,0.080585
2904.688574,0.076716
2902.75983,0.072833
2900.831086,0.069042
2898.902342,0.065471
2896.973598,0.062064
2895.044854,0.0588
2893.11611,0.055807
2891.187366,0.053221
2889.258622,0.051081
2887.329878,0.049319
2885.401134,0.047757
2883.47239,0.046361
2881.543646,0.045299
2879.614902,0.044628
2877.686157,0.044358
2875.757413,0.044544
2873.828669,0.045022
2871.899925,0.045468
2869.971181,0.045844
2868.042437,0.046399
2866.113693,0.047344
2864.184949,0.048812
2862.256205,0.050824
2860.327461,0.053307
2858.398717,0.056154
2856.469973,0.059116
2854.541229,0.062047
2852.612485,0.064926
2850.68374,0.067018
2848.754996,0.066654
2846.826252,0.062971
2844.897508,0.057281
2842.968764,0.051567
2841.04002,0.046688
2839.111276,0.042602
2837.182532,0.039154
2835.253788,0.036189
2833.325044,0.033538
2831.3963,0.031141
2829.467556,0.029107
2827.538812,0.027524
2825.610067,0.02627
2823.681323,0.025175
2821.752579,0.024262
2819.823835,0.023629
2817.895091,0.023175
2815.966347,0.022651
2814.037603,0.022009
2812.108859,0.021374
2810.180115,0.020792
2808.251371,0.020249
2806.322627,0.019782
2804.393883,0.019439
2802.465139,0.019177
2800.536395,0.018927
2798.60765,0.018688
2796.678906,0.018446
2794.750162,0.018165
2792.821418,0.017885
2790.892674,0.017666
2788.96393,0.017479
2787.035186,0.017283
2785.106442,0.017071
2783.177698,0.016851
2781.248954,0.016678
2779.32021,0.01653
2777.391466,0.016292
2775.462722,0.01598
2773.533977,0.015773
2771.605233,0.015738
2769.676489,0.015767
2767.747745,0.015739
2765.819001,0.015591
2763.890257,0.015384
2761.961513,0.015302
2760.032769,0.015364
2758.104025,0.015391
2756.175281,0.015372
2754.246537,0.015393
2752.317793,0.015396
2750.389049,0.015342
2748.460305,0.015266
2746.53156,0.015184
2744.602816,0.015104
2742.674072,0.015011
2740.745328,0.014897
2738.816584,0.014808
2736.88784,0.014827
2734.959096,0.014894
2733.030352,0.014831
2731.101608,0.014641
2729.172864,0.014429
2727.24412,0.014217
2725.315376,0.014082
2723.386632,0.014094
2721.457888,0.014151
2719.529143,0.014137
2717.600399,0.014074
2715.671655,0.01398
2713.742911,0.013843
2711.814167,0.01369
2709.885423,0.013574
2707.956679,0.013541
2706.027935,0.013548
2704.099191,0.013497
2702.170447,0.013391
2700.241703,0.013309
2698.312959,0.013303
2696.384215,0.013364
2694.45547,0.013392
2692.526726,0.013341
2690.597982,0.013288
2688.669238,0.013254
2686.740494,0.013224
2684.81175,0.013206
2682.883006,0.013151
2680.954262,0.013072
2679.025518,0.013054
2677.096774,0.013098
2675.16803,0.013131
2673.239286,0.013115
2671.310542,0.013076
2669.381798,0.013036
2667.453053,0.013
2665.524309,0.012951
2663.595565,0.01287
2661.666821,0.012824
2659.738077,0.012847
2657.809333,0.012842
2655.880589,0.012729
2653.951845,0.012573
2652.023101,0.012479
2650.094357,0.012442
2648.165613,0.01237
2646.236869,0.0122
2644.308125,0.011982
2642.379381,0.011855
2640.450636,0.011851
2638.521892,0.011847
2636.593148,0.011768
2634.664404,0.011644
2632.73566,0.011482
2630.806916,0.01131
2628.878172,0.011172
2626.949428,0.011068
2625.020684,0.011037
2623.09194,0.011053
2621.163196,0.01098
2619.234452,0.010844
2617.305708,0.010774
2615.376963,0.010776
2613.448219,0.010775
2611.519475,0.010718
2609.590731,0.010576
2607.661987,0.0104
2605.733243,0.01032
2603.804499,0.010306
2601.875755,0.01026
2599.947011,0.010248
2598.018267,0.010231
2596.089523,0.010092
2594.160779,0.009917
2592.232035,0.009828
2590.303291,0.009813
2588.374546,0.009757
2586.445802,0.009573
2584.517058,0.009338
2582.588314,0.009268
2580.65957,0.00943
2578.730826,0.009606
2576.802082,0.009611
2574.873338,0.009486
2572.944594,0.00937
2571.01585,0.009292
2569.087106,0.009182
2567.158362,0.009048
2565.229618,0.008885
2563.300874,0.008772
2561.372129,0.008903
2559.443385,0.009159
2557.514641,0.009234
2555.585897,0.009098
2553.657153,0.008918
2551.728409,0.008797
2549.799665,0.008767
2547.870921,0.008857
2545.942177,0.008932
2544.013433,0.008839
2542.084689,0.008755
2540.155945,0.00887
2538.227201,0.009039
2536.298456,0.00906
2534.369712,0.00898
2532.440968,0.008966
2530.512224,0.009022
2528.58348,0.008979
2526.654736,0.008777
2524.725992,0.00854
2522.797248,0.008427
2520.868504,0.008445
2518.93976,0.00844
2517.011016,0.00834
2515.082272,0.008245
2513.153528,0.008227
2511.224784,0.008178
2509.296039,0.007987
2507.367295,0.007788
2505.438551,0.007748
2503.509807,0.007843
2501.581063,0.007912
2499.652319,0.00778
2497.723575,0.007521
2495.794831,0.007347
2493.866087,0.00724
2491.937343,0.007097
2490.008599,0.006985
2488.079855,0.006989
2486.151111,0.007075
2484.222366,0.007097
2482.293622,0.006974
2480.364878,0.006873
2478.436134,0.006958
2476.50739,0.007068
2474.578646,0.00705
2472.649902,0.007048
2470.721158,0.007094
2468.792414,0.007036
2466.86367,0.006895
2464.934926,0.006733
2463.006182,0.006564
2461.077438,0.006514
2459.148694,0.006622
2457.219949,0.006701
2455.291205,0.006662
2453.362461,0.006687
2451.433717,0.006867
2449.504973,0.006974
2447.576229,0.006789
2445.647485,0.006404
2443.718741,0.006152
2441.789997,0.006208
2439.861253,0.006374
2437.932509,0.006419
2436.003765,0.006437
2434.075021,0.006525
2432.146277,0.006541
2430.217532,0.006476
2428.288788,0.006406
2426.360044,0.006378
2424.4313,0.006494
2422.502556,0.006607
2420.573812,0.006489
2418.645068,0.006236
2416.716324,0.006051
2414.78758,0.00601
2412.858836,0.00604
2410.930092,0.006088
2409.001348,0.006159
2407.072604,0.006158
2405.143859,0.006087
2403.215115,0.006126
2401.286371,0.006242
2399.357627,0.006198
2397.428883,0.006052
2395.500139,0.006043
2393.571395,0.006139
2391.642651,0.006169
2389.713907,0.006115
2387.785163,0.006054
2385.856419,0.006031
2383.927675,0.006028
2381.998931,0.006012
2380.070187,0.005996
2378.141442,0.006037
2376.212698,0.006245
2374.283954,0.006623
2372.35521,0.006955
2370.426466,0.007153
2368.497722,0.007304
2366.568978,0.007452
2364.640234,0.007676
2362.71149,0.007949
2360.782746,0.008056
2358.854002,0.007921
2356.925258,0.007702
2354.996514,0.007558
2353.06777,0.007467
2351.139025,0.00731
2349.210281,0.007133
2347.281537,0.007123
2345.352793,0.007335
2343.424049,0.007583
2341.495305,0.007698
2339.566561,0.007752
2337.637817,0.007852
2335.709073,0.007937
2333.780329,0.007914
2331.851585,0.007767
2329.922841,0.007619
2327.994097,0.007751
2326.065352,0.008214
2324.136608,0.008511
2322.207864,0.00821
2320.27912,0.007604
2318.350376,0.007228
2316.421632,0.007121
2314.492888,0.006987
2312.564144,0.006738
2310.6354,0.006519
2308.706656,0.006384
2306.777912,0.006305
2304.849168,0.00626
2302.920424,0.00621
2300.99168,0.006056
2299.062935,0.005763
2297.134191,0.005541
2295.205447,0.005628
2293.276703,0.005982
2291.347959,0.006264
2289.419215,0.006311
2287.490471,0.00623
2285.561727,0.005846
2283.632983,0.005207
2281.704239,0.004981
2279.775495,0.005183
2277.846751,0.005115
2275.918007,0.004798
2273.989262,0.004724
2272.060518,0.00489
2270.131774,0.004936
2268.20303,0.004715
2266.274286,0.004394
2264.345542,0.004163
2262.416798,0.004214
2260.488054,0.004497
2258.55931,0.004585
2256.630566,0.004307
2254.701822,0.003962
2252.773078,0.003899
2250.844334,0.004196
2248.91559,0.004877
2246.986845,0.005969
2245.058101,0.007272
2243.129357,0.008777
2241.200613,0.010624
2239.271869,0.012356
2237.343125,0.013009
2235.414381,0.012033
2233.485637,0.009872
2231.556893,0.007639
2229.628149,0.006163
2227.699405,0.00537
2225.770661,0.004797
2223.841917,0.004367
2221.913173,0.004207
2219.984428,0.004252
2218.055684,0.004411
2216.12694,0.004476
2214.198196,0.004051
2212.269452,0.003408
2210.340708,0.00322
2208.411964,0.003266
2206.48322,0.003082
2204.554476,0.002972
2202.625732,0.003124
2200.696988,0.003191
2198.768244,0.00313
2196.8395,0.003245
2194.910755,0.003494
2192.982011,0.003353
2191.053267,0.002633
2189.124523,0.002037
2187.195779,0.002196
2185.267035,0.002685
2183.338291,0.002751
2181.409547,0.002364
2179.480803,0.001895
2177.552059,0.001574
2175.623315,0.001464
2173.694571,0.001526
2171.765827,0.001698
2169.837083,0.001734
2167.908338,0.001586
2165.979594,0.001618
2164.05085,0.001771
2162.122106,0.001465
2160.193362,0.000581
2158.264618,-0.000273
2156.335874,-0.000578
2154.40713,-0.000436
2152.478386,-0.000143
2150.549642,0.000137
2148.620898,0.000222
2146.692154,9.7e-05
2144.76341,0.000166
2142.834666,0.000528
2140.905921,0.000763
2138.977177,0.000784
2137.048433,0.000845
2135.119689,0.000906
2133.190945,0.000858
2131.262201,0.000954
2129.333457,0.001158
2127.404713,0.001231
2125.475969,0.001415
2123.547225,0.001793
2121.618481,0.00209
2119.689737,0.002166
2117.760993,0.002141
2115.832248,0.002298
2113.903504,0.002562
2111.97476,0.002471
2110.046016,0.001901
2108.117272,0.001382
2106.188528,0.001372
2104.259784,0.001639
2102.33104,0.001879
2100.402296,0.002014
2098.473552,0.00187
2096.544808,0.001453
2094.616064,0.001177
2092.68732,0.001311
2090.758576,0.001509
2088.829831,0.001577
2086.901087,0.001711
2084.972343,0.001723
2083.043599,0.001492
2081.114855,0.001432
2079.186111,0.001562
2077.257367,0.00134
2075.328623,0.000764
2073.399879,0.000373
2071.471135,0.000285
2069.542391,0.000347
2067.613647,0.000427
2065.684903,0.000357
2063.756158,0.000197
2061.827414,-0.000157
2059.89867,-0.000736
2057.969926,-0.000902
2056.041182,-0.000566
2054.112438,-0.000401
2052.183694,-0.000601
2050.25495,-0.001111
2048.326206,-0.001859
2046.397462,-0.002408
2044.468718,-0.002574
2042.539974,-0.00252
2040.61123,-0.002274
2038.682486,-0.002037
2036.753741,-0.002039
2034.824997,-0.002247
2032.896253,-0.002576
2030.967509,-0.002784
2029.038765,-0.002802
2027.110021,-0.002944
2025.181277,-0.003217
2023.252533,-0.003414
2021.323789,-0.003466
2019.395045,-0.003343
2017.466301,-0.003079
2015.537557,-0.002788
2013.608813,-0.002705
2011.680069,-0.002873
2009.751324,-0.002933
2007.82258,-0.002817
2005.893836,-0.002728
2003.965092,-0.002584
2002.036348,-0.002442
2000.107604,-0.002575
1998.17886,-0.002902
1996.250116,-0.003
1994.321372,-0.002732
1992.392628,-0.002454
1990.463884,-0.002364
1988.53514,-0.00238
1986.606396,-0.002591
1984.677651,-0.00287
1982.748907,-0.002737
1980.820163,-0.00234
1978.891419,-0.002216
1976.962675,-0.002237
1975.033931,-0.002331
1973.105187,-0.002723
1971.176443,-0.003099
1969.247699,-0.00286
1967.318955,-0.001946
1965.390211,-0.001226
1963.461467,-0.001388
1961.532723,-0.001934
1959.603979,-0.002103
1957.675234,-0.001876
1955.74649,-0.001628
1953.817746,-0.001492
1951.889002,-0.001379
1949.960258,-0.001101
1948.031514,-0.000732
1946.10277,-0.000655
1944.174026,-0.00075
1942.245282,-0.000707
1940.316538,-0.00067
1938.387794,-0.000621
1936.45905,-0.000398
1934.530306,-0.000197
1932.601562,-0.000186
1930.672817,-0.000213
1928.744073,-7.6e-05
1926.815329,0.000275
1924.886585,0.00061
1922.957841,0.000703
1921.029097,0.000806
1919.100353,0.001144
1917.171609,0.001467
1915.242865,0.001565
1913.314121,0.001501
1911.385377,0.001437
1909.456633,0.001421
1907.527889,0.00138
1905.599144,0.001435
1903.6704,0.001652
1901.741656,0.001868
1899.812912,0.002009
1897.884168,0.002088
1895.955424,0.002132
1894.02668,0.002166
1892.097936,0.002219
1890.169192,0.002317
1888.240448,0.002402
1886.311704,0.002433
1884.38296,0.002542
1882.454216,0.002777
1880.525472,0.002904
1878.596727,0.002948
1876.667983,0.003227
1874.739239,0.003606
1872.810495,0.003715
1870.881751,0.003588
1868.953007,0.003522
1867.024263,0.003691
1865.095519,0.003998
1863.166775,0.004211
1861.238031,0.004295
1859.309287,0.004338
1857.380543,0.004371
1855.451799,0.004493
1853.523055,0.004674
1851.59431,0.004708
1849.665566,0.004601
1847.736822,0.004614
1845.808078,0.004892
1843.879334,0.005243
1841.95059,0.005392
1840.021846,0.005338
1838.093102,0.005303
1836.164358,0.005409
1834.235614,0.005648
1832.30687,0.005976
1830.378126,0.006245
1828.449382,0.006377
1826.520637,0.006471
1824.591893,0.006575
1822.663149,0.006656
1820.734405,0.006684
1818.805661,0.006678
1816.876917,0.006728
1814.948173,0.006866
1813.019429,0.006974
1811.090685,0.007023
1809.161941,0.007116
1807.233197,0.007293
1805.304453,0.007514
1803.375709,0.007664
1801.446965,0.007709
1799.51822,0.007759
1797.589476,0.007869
1795.660732,0.007989
1793.731988,0.008099
1791.803244,0.008195
1789.8745,0.008253
1787.945756,0.00835
1786.017012,0.008583
1784.088268,0.008936
1782.159524,0.009341
1780.23078,0.009749
1778.302036,0.01018
1776.373292,0.010694
1774.444547,0.011347
1772.515803,0.012116
1770.587059,0.012913
1768.658315,0.013707
1766.729571,0.014568
1764.800827,0.015539
1762.872083,0.016527
1760.943339,0.01747
1759.014595,0.018437
1757.085851,0.019481
1755.157107,0.020655
1753.228363,0.022117
1751.299619,0.023954
1749.370875,0.026024
1747.44213,0.028175
1745.513386,0.030338
1743.584642,0.032471
1741.655898,0.034544
1739.727154,0.036358
1737.79841,0.037627
1735.869666,0.038373
1733.940922,0.038798
1732.012178,0.038995
1730.083434,0.039113
1728.15469,0.039285
1726.225946,0.039439
1724.297202,0.039423
1722.368458,0.039229
1720.439713,0.039085
1718.510969,0.03914
1716.582225,0.039259
1714.653481,0.039391
1712.724737,0.039666
1710.795993,0.040165
1708.867249,0.040927
1706.938505,0.04198
1705.009761,0.043296
1703.081017,0.044943
1701.152273,0.047095
1699.223529,0.049703
1697.294785,0.05275
1695.36604,0.056463
1693.437296,0.06068
1691.508552,0.065215
1689.579808,0.070113
1687.651064,0.075059
1685.72232,0.079709
1683.793576,0.083408
1681.864832,0.085324
1679.936088,0.085603
1678.007344,0.084904
1676.0786,0.083872
1674.149856,0.083155
1672.221112,0.083096
1670.292368,0.083556
1668.363623,0.084057
1666.434879,0.084017
1664.506135,0.083096
1662.577391,0.081191
1660.648647,0.078632
1658.719903,0.076038
1656.791159,0.073812
1654.862415,0.072071
1652.933671,0.070723
1651.004927,0.069654
1649.076183,0.068881
1647.147439,0.068466
1645.218695,0.068326
1643.289951,0.068288
1641.361206,0.068276
1639.432462,0.068172
1637.503718,0.067824
1635.574974,0.067215
1633.64623,0.06655
1631.717486,0.066158
1629.788742,0.066184
1627.859998,0.066471
1625.931254,0.066772
1624.00251,0.066878
1622.073766,0.066519
1620.145022,0.065643
1618.216278,0.064507
1616.287533,0.063401
1614.358789,0.062612
1612.430045,0.062344
1610.501301,0.06267
1608.572557,0.063624
1606.643813,0.065137
1604.715069,0.066892
1602.786325,0.068404
1600.857581,0.069159
1598.928837,0.068846
1597.000093,0.067583
1595.071349,0.065836
1593.142605,0.064135
1591.213861,0.062788
1589.285116,0.061824
1587.356372,0.06115
1585.427628,0.060659
1583.498884,0.060246
1581.57014,0.059852
1579.641396,0.059472
1577.712652,0.059129
1575.783908,0.058832
1573.855164,0.058574
1571.92642,0.058382
1569.997676,0.058316
1568.068932,0.058384
1566.140188,0.058596
1564.211443,0.058981
1562.282699,0.059612
1560.353955,0.060561
1558.425211,0.061654
1556.496467,0.062671
1554.567723,0.063723
1552.638979,0.064931
1550.710235,0.066382
1548.781491,0.068287
1546.852747,0.070904
1544.924003,0.07454
1542.995259,0.079263
1541.066515,0.084224
1539.137771,0.087183
1537.209026,0.086414
1535.280282,0.083012
1533.351538,0.07915
1531.422794,0.076302
1529.49405,0.07477
1527.565306,0.074265
1525.636562,0.074464
1523.707818,0.075164
1521.779074,0.076325
1519.85033,0.077827
1517.921586,0.079494
1515.992842,0.081177
1514.064098,0.082666
1512.135354,0.083863
1510.206609,0.084844
1508.277865,0.085826
1506.349121,0.086892
1504.420377,0.087807
1502.491633,0.088546
1500.562889,0.089323
1498.634145,0.090144
1496.705401,0.090843
1494.776657,0.091282
1492.847913,0.0915
1490.919169,0.091693
1488.990425,0.091976
1487.061681,0.092327
1485.132936,0.092731
1483.204192,0.093269
1481.275448,0.094084
1479.346704,0.095336
1477.41796,0.097189
1475.489216,0.099803
1473.560472,0.103248
1471.631728,0.107404
1469.702984,0.112069
1467.77424,0.117011
1465.845496,0.121724
1463.916752,0.125704
1461.988008,0.12908
1460.059264,0.132697
1458.130519,0.137456
1456.201775,0.142957
1454.273031,0.147472
1452.344287,0.15032
1450.415543,0.152272
1448.486799,0.154311
1446.558055,0.156895
1444.629311,0.15984
1442.700567,0.162807
1440.771823,0.165657
1438.843079,0.16833
1436.914335,0.170314
1434.985591,0.17046
1433.056847,0.168283
1431.128102,0.16483
1429.199358,0.161913
1427.270614,0.159936
1425.34187,0.157075
1423.413126,0.152315
1421.484382,0.146965
1419.555638,0.142057
1417.626894,0.137282
1415.69815,0.132189
1413.769406,0.126676
1411.840662,0.121017
1409.911918,0.115667
1407.983174,0.110886
1406.054429,0.106741
1404.125685,0.103388
1402.196941,0.10103
1400.268197,0.0995
1398.339453,0.098099
1396.410709,0.096133
1394.481965,0.0937
1392.553221,0.09152
1390.624477,0.090104
1388.695733,0.089583
1386.766989,0.089969
1384.838245,0.090993
1382.909501,0.091991
1380.980757,0.092246
1379.052012,0.09139
1377.123268,0.08967
1375.194524,0.087914
1373.26578,0.087139
1371.337036,0.08779
1369.408292,0.089336
1367.479548,0.090752
1365.550804,0.091371
1363.62206,0.091262
1361.693316,0.090854
1359.764572,0.090468
1357.835828,0.090172
1355.907084,0.089836
1353.97834,0.089238
1352.049595,0.088236
1350.120851,0.086926
1348.192107,0.085601
1346.263363,0.084539
1344.334619,0.083947
1342.405875,0.084007
1340.477131,0.084765
1338.548387,0.085962
1336.619643,0.087164
1334.690899,0.088225
1332.762155,0.089353
1330.833411,0.090469
1328.904667,0.091063
1326.975922,0.090874
1325.047178,0.090143
1323.118434,0.089166
1321.18969,0.088045
1319.260946,0.086875
1317.332202,0.085824
1315.403458,0.084939
1313.474714,0.084145
1311.54597,0.08342
1309.617226,0.082756
1307.688482,0.082084
1305.759738,0.081392
1303.830994,0.080739
1301.90225,0.08015
1299.973505,0.079546
1298.044761,0.078773
1296.116017,0.077835
1294.187273,0.07697
1292.258529,0.076331
1290.329785,0.075889
1288.401041,0.075683
1286.472297,0.075767
1284.543553,0.076098
1282.614809,0.076639
1280.686065,0.077383
1278.757321,0.078365
1276.828577,0.07963
1274.899832,0.081188
1272.971088,0.083078
1271.042344,0.085415
1269.1136,0.088264
1267.184856,0.091535
1265.256112,0.094949
1263.327368,0.098096
1261.398624,0.100692
1259.46988,0.102798
1257.541136,0.104486
1255.612392,0.105325
1253.683648,0.104862
1251.754904,0.10355
1249.82616,0.102236
1247.897415,0.101215
1245.968671,0.100384
1244.039927,0.099542
1242.111183,0.098395
1240.182439,0.096752
1238.253695,0.094705
1236.324951,0.092463
1234.396207,0.090146
1232.467463,0.087826
1230.538719,0.085455
1228.609975,0.082789
1226.681231,0.079635
1224.752487,0.076168
1222.823743,0.072926
1220.894998,0.070402
1218.966254,0.068718
1217.03751,0.067691
1215.108766,0.067084
1213.180022,0.066745
1211.251278,0.066665
1209.322534,0.066907
1207.39379,0.067413
1205.465046,0.067931
1203.536302,0.068277
1201.607558,0.068402
1199.678814,0.068198
1197.75007,0.067656
1195.821325,0.06694
1193.892581,0.066152
1191.963837,0.065311
1190.035093,0.064392
1188.106349,0.063415
1186.177605,0.062489
1184.248861,0.061674
1182.320117,0.060981
1180.391373,0.06043
1178.462629,0.060059
1176.533885,0.05988
1174.605141,0.059852
1172.676397,0.059894
1170.747653,0.05992
1168.818908,0.059867
1166.890164,0.059634
1164.96142,0.05915
1163.032676,0.058514
1161.103932,0.05786
1159.175188,0.057281
1157.246444,0.056858
1155.3177,0.056558
1153.388956,0.056331
1151.460212,0.056255
1149.531468,0.056356
1147.602724,0.056523
1145.67398,0.056681
1143.745236,0.056883
1141.816491,0.057186
1139.887747,0.057649
1137.959003,0.058447
1136.030259,0.059666
1134.101515,0.061238
1132.172771,0.063089
1130.244027,0.065115
1128.315283,0.067248
1126.386539,0.069493
1124.457795,0.071986
1122.529051,0.075101
1120.600307,0.078853
1118.671563,0.082268
1116.742818,0.084187
1114.814074,0.084504
1112.88533,0.084028
1110.956586,0.083573
1109.027842,0.083496
1107.099098,0.083772
1105.170354,0.084217
1103.24161,0.084615
1101.312866,0.084882
1099.384122,0.085125
1097.455378,0.085411
1095.526634,0.085642
1093.59789,0.085675
1091.669146,0.08551
1089.740401,0.085375
1087.811657,0.08546
1085.882913,0.085721
1083.954169,0.086113
1082.025425,0.086669
1080.096681,0.087387
1078.167937,0.0883
1076.239193,0.089501
1074.310449,0.091038
1072.381705,0.092872
1070.452961,0.095021
1068.524217,0.097648
1066.595473,0.10092
1064.666728,0.104922
1062.737984,0.10972
1060.80924,0.115504
1058.880496,0.122621
1056.951752,0.131508
1055.023008,0.142644
1053.094264,0.156314
1051.16552,0.172208
1049.236776,0.189533
1047.308032,0.207427
1045.379288,0.225002
1043.450544,0.24167
1041.5218,0.257598
1039.593056,0.273451
1037.664311,0.290081
1035.735567,0.308433
1033.806823,0.329201
1031.878079,0.35267
1029.949335,0.37911
1028.020591,0.408978
1026.091847,0.442636
1024.163103,0.480135
1022.234359,0.520771
1020.305615,0.562627
1018.376871,0.602477
1016.448127,0.63614
1014.519383,0.659844
1012.590639,0.671688
1010.661894,0.672306
1008.73315,0.664326
1006.804406,0.65071
1004.875662,0.633813
1002.946918,0.615188
1001.018174,0.595601
999.08943,0.575574
997.160686,0.555551
995.231942,0.535374
993.303198,0.514447
991.374454,0.492703
989.44571,0.470882
987.516966,0.450032
985.588221,0.431246
983.659477,0.41546
981.730733,0.403392
979.801989,0.395759
977.873245,0.393092
975.944501,0.395319
974.015757,0.401448
972.087013,0.409453
970.158269,0.416674
968.229525,0.420217
966.300781,0.417455
964.372037,0.407161
962.443293,0.390331
960.514549,0.369646
958.585804,0.348091
956.65706,0.327757
954.728316,0.309342
952.799572,0.292729
950.870828,0.277819
948.942084,0.264432
947.01334,0.252219
945.084596,0.241104
943.155852,0.231212
941.227108,0.222469
939.298364,0.214679
937.36962,0.207777
935.440876,0.201844
933.512132,0.196916
931.583387,0.19285
929.654643,0.189458
927.725899,0.186573
925.797155,0.184058
923.868411,0.181823
921.939667,0.179687
920.010923,0.177328
918.082179,0.174539
916.153435,0.171185
914.224691,0.167068
912.295947,0.162196
910.367203,0.156865
908.438459,0.15152
906.509714,0.146566
904.58097,0.142258
902.652226,0.138821
900.723482,0.136432
898.794738,0.13536
896.865994,0.136118
894.93725,0.139264
893.008506,0.145294
891.079762,0.1545
889.151018,0.166026
887.222274,0.177137
885.29353,0.184734
883.364786,0.18754
881.436042,0.186099
879.507297,0.181534
877.578553,0.174685
875.649809,0.166142
873.721065,0.156827
871.792321,0.147939
869.863577,0.140302
867.934833,0.134176
866.006089,0.129656
864.077345,0.126872
862.148601,0.125812
860.219857,0.126304
858.291113,0.128185
856.362369,0.130279
854.433625,0.130222
852.50488,0.127575
850.576136,0.124487
848.647392,0.122484
846.718648,0.121286
844.789904,0.11991
842.86116,0.117825
840.932416,0.115259
839.003672,0.112701
837.074928,0.110465
835.146184,0.108617
833.21744,0.107132
831.288696,0.105809
829.359952,0.104386
827.431207,0.102829
825.502463,0.101254
823.573719,0.099839
821.644975,0.098768
819.716231,0.098156
817.787487,0.097954
815.858743,0.098059
813.929999,0.098716
812.001255,0.100207
810.072511,0.102142
808.143767,0.103575
806.215023,0.103806
804.286279,0.103002
802.357535,0.101836
800.42879,0.100653
798.500046,0.099527
796.571302,0.098633
794.642558,0.098034
792.713814,0.097758
790.78507,0.097941
788.856326,0.09844
786.927582,0.098964
784.998838,0.099553
783.070094,0.100236
781.14135,0.10065
779.212606,0.100459
777.283862,0.099811
775.355117,0.099292
773.426373,0.099392
771.497629,0.100101
769.568885,0.10123
767.640141,0.102674
765.711397,0.104264
763.782653,0.105949
761.853909,0.107805
759.925165,0.109705
757.996421,0.111637
756.067677,0.11414
754.138933,0.118191
752.210189,0.124601
750.281445,0.132363
748.3527,0.137841
746.423956,0.13801
744.495212,0.133962
742.566468,0.129031
740.637724,0.125203
738.70898,0.122601
736.780236,0.120911
734.851492,0.12035
732.922748,0.121082
730.994004,0.122274
729.06526,0.122688
727.136516,0.122267
725.207772,0.121989
723.279028,0.122179
721.350283,0.122401
719.421539,0.122309
717.492795,0.121993
715.564051,0.122059
713.635307,0.122998
711.706563,0.124667
709.777819,0.126766
707.849075,0.129329
705.920331,0.132507
703.991587,0.136217
702.062843,0.14047
700.134099,0.145911
698.205355,0.153618
696.27661,0.164409
694.347866,0.177807
692.419122,0.190878
690.490378,0.199694
688.561634,0.203108
686.63289,0.203683
684.704146,0.20475
682.775402,0.207699
680.846658,0.212256
678.917914,0.219229
676.98917,0.231981
675.060426,0.254691
673.131682,0.28873
671.202938,0.327792
669.274193,0.355734
667.345449,0.355685
665.416705,0.328512
663.487961,0.291345
661.559217,0.258098
659.630473,0.233086
657.701729,0.215189
655.772985,0.20259
653.844241,0.19405
651.915497,0.188165
649.986753,0.183582
648.058009,0.179675
646.129265,0.176702
644.200521,0.175322
642.271776,0.176116
640.343032,0.179837
638.414288,0.186279
636.485544,0.192428
634.5568,0.194429
632.628056,0.19195
630.699312,0.188724
628.770568,0.188022
626.841824,0.189035
624.91308,0.189505
622.984336,0.189736
621.055592,0.190859
619.126848,0.192351
617.198103,0.1935
615.269359,0.194126
613.340615,0.193672
611.411871,0.191516
609.483127,0.18774
607.554383,0.182796
605.625639,0.17711
603.696895,0.171131
601.768151,0.164795
599.839407,0.157869
597.910663,0.150822
595.981919,0.144201
594.053175,0.138181
592.124431,0.133044
590.195686,0.129067
588.266942,0.12617
586.338198,0.123953
584.409454,0.121925
582.48071,0.119923
580.551966,0.117985
578.623222,0.116041
576.694478,0.114312
574.765734,0.11307
572.83699,0.11223
570.908246,0.111688
568.979502,0.111435
567.050758,0.111735
565.122013,0.113314
563.193269,0.11693
561.264525,0.122474
559.335781,0.128237
557.407037,0.131813
555.478293,0.132406
553.549549,0.131403
551.620805,0.13043
549.692061,0.130469
547.763317,0.132756
545.834573,0.138634
543.905829,0.148696
541.977085,0.163003
540.048341,0.181335
538.119596,0.20222
536.190852,0.222603
534.262108,0.23967
532.333364,0.252198
530.40462,0.26006
528.475876,0.263722
526.547132,0.263548
524.618388,0.259719
522.689644,0.253267
520.7609,0.245475
518.832156,0.236947
516.903412,0.228399
514.974668,0.221
513.045924,0.215761
511.117179,0.213526
509.188435,0.215546
507.259691,0.223039
505.330947,0.235253
503.402203,0.248761
501.473459,0.259679
499.544715,0.265833
497.615971,0.267687
495.687227,0.268057
493.758483,0.26934
491.829739,0.271992
489.900995,0.276357
487.972251,0.283193
486.043506,0.292704
484.114762,0.304622
482.186018,0.318436
480.257274,0.333791
478.32853,0.351034
476.399786,0.370343
474.471042,0.391317
472.542298,0.414439
470.613554,0.440677
468.68481,0.47011
466.756066,0.500047
464.827322,0.520862
462.898578,0.522018
460.969834,0.508542
459.041089,0.498457
457.112345,0.503859
455.183601,0.524027
453.254857,0.55144
451.326113,0.577262
449.397369,0.593096
447.468625,0.595922
445.539881,0.591382
443.611137,0.587846
441.682393,0.586863
439.753649,0.58214
437.824905,0.568776
435.896161,0.548768
433.967417,0.526702
432.038672,0.508074
430.109928,0.50487
428.181184,0.530405
426.25244,0.580931
424.323696,0.62842
422.394952,0.643466
420.466208,0.62732
418.537464,0.599719
416.60872,0.570526
414.679976,0.540864
412.751232,0.511627
410.822488,0.484524
408.893744,0.461214
406.964999,0.440132
405.036255,0.419788
403.107511,0.405155
401.178767,0.402878
399.250023,0.418598
