3996.35772,0.105818,Unnamed: 2,Unnamed: 3,Unnamed: 4,Unnamed: 5,Unnamed: 6
3994.428976,0.105396,,,,,
3992.500232,0.105251,,,,,
3990.571488,0.105295,,,,,
3988.642744,0.105344,,,,,
3986.714,0.105281,,,,,
3984.785256,0.105087,,,,,
3982.856511,0.105059,,,,,
3980.927767,0.105337,,,,,
3978.999023,0.105574,,,,,
3977.070279,0.105545,,,,,
3975.141535,0.105407,,,,,
3973.212791,0.105353,,,,,
3971.284047,0.105408,,,,,
3969.355303,0.105462,,,,,
3967.426559,0.105402,,,,,
3965.497815,0.105342,,,,,
3963.569071,0.105397,,,,,
3961.640327,0.105325,,,,,
3959.711583,0.105097,,,,,
3957.782839,0.104982,,,,,
3955.854094,0.104939,,,,,
3953.92535,0.104885,,,,,
3951.996606,0.104784,,,,,
3950.067862,0.104609,,,,,
3948.139118,0.104541,,,,,
3946.210374,0.1046,,,,,
3944.28163,0.104688,,,,,
3942.352886,0.104853,,,,,
3940.424142,0.105114,,,,,
3938.495398,0.105293,,,,,
3936.566654,0.105121,,,,,
3934.63791,0.104718,,,,,
3932.709166,0.104408,,,,,
3930.780422,0.104202,,,,,
3928.851677,0.104142,,,,,
3926.922933,0.10431,,,,,
3924.994189,0.104496,,,,,
3923.065445,0.104547,,,,,
3921.136701,0.104473,,,,,
3919.207957,0.104358,,,,,
3917.279213,0.104437,,,,,
3915.350469,0.104688,,,,,
3913.421725,0.104819,,,,,
3911.492981,0.104805,,,,,
3909.564237,0.104783,,,,,red = nylon8
3907.635493,0.104759,,,,,
3905.706749,0.104702,,,,,
3903.778004,0.104709,,,,,
3901.84926,0.104865,,,,,
3899.920516,0.104971,,,,,
3897.991772,0.104795,,,,,
3896.063028,0.104442,,,,,
3894.134284,0.104212,,,,,
3892.20554,0.10423,,,,,
3890.276796,0.104337,,,,,
3888.348052,0.104377,,,,,
3886.419308,0.104311,,,,,
3884.490564,0.104199,,,,,
3882.56182,0.104162,,,,,
3880.633076,0.10419,,,,,
3878.704332,0.104269,,,,,
3876.775587,0.104426,,,,,
3874.846843,0.104565,,,,,
3872.918099,0.10458,,,,,
3870.989355,0.104366,,,,,
3869.060611,0.104043,,,,,
3867.131867,0.103955,,,,,
3865.203123,0.104036,,,,,
3863.274379,0.104038,,,,,
3861.345635,0.104025,,,,,
3859.416891,0.104106,,,,,
3857.488147,0.104289,,,,,
3855.559403,0.104431,,,,,
3853.630659,0.104241,,,,,
3851.701915,0.103886,,,,,
3849.77317,0.103815,,,,,
3847.844426,0.103843,,,,,
3845.915682,0.103685,,,,,
3843.986938,0.103597,,,,,
3842.058194,0.103702,,,,,
3840.12945,0.103665,,,,,
3838.200706,0.103462,,,,,
3836.271962,0.10346,,,,,
3834.343218,0.103577,,,,,
3832.414474,0.103514,,,,,
3830.48573,0.103385,,,,,
3828.556986,0.103382,,,,,
3826.628242,0.103488,,,,,
3824.699497,0.103523,,,,,
3822.770753,0.103371,,,,,
3820.842009,0.103232,,,,,
3818.913265,0.103269,,,,,
3816.984521,0.103346,,,,,
3815.055777,0.103366,,,,,
3813.127033,0.103318,,,,,
3811.198289,0.103156,,,,,
3809.269545,0.103028,,,,,
3807.340801,0.103096,,,,,
3805.412057,0.103185,,,,,
3803.483313,0.103159,,,,,
3801.554569,0.103126,,,,,
3799.625825,0.103068,,,,,
3797.69708,0.102827,,,,,
3795.768336,0.102489,,,,,
3793.839592,0.102283,,,,,
3791.910848,0.102347,,,,,
3789.982104,0.102621,,,,,
3788.05336,0.102748,,,,,
3786.124616,0.102674,,,,,
3784.195872,0.10276,,,,,
3782.267128,0.102961,,,,,
3780.338384,0.103052,,,,,
3778.40964,0.103095,,,,,
3776.480896,0.10303,,,,,
3774.552152,0.10276,,,,,
3772.623408,0.102522,,,,,
3770.694663,0.102481,,,,,
3768.765919,0.10244,,,,,
3766.837175,0.10226,,,,,
3764.908431,0.102172,,,,,
3762.979687,0.102312,,,,,
3761.050943,0.102433,,,,,
3759.122199,0.102472,,,,,
3757.193455,0.102507,,,,,
3755.264711,0.102467,,,,,
3753.335967,0.102409,,,,,
3751.407223,0.102274,,,,,
3749.478479,0.102016,,,,,
3747.549735,0.101976,,,,,
3745.62099,0.102151,,,,,
3743.692246,0.102133,,,,,
3741.763502,0.101914,,,,,
3739.834758,0.101736,,,,,
3737.906014,0.101679,,,,,
3735.97727,0.101766,,,,,
3734.048526,0.101841,,,,,
3732.119782,0.10176,,,,,
3730.191038,0.101701,,,,,
3728.262294,0.101744,,,,,
3726.33355,0.10173,,,,,
3724.404806,0.10162,,,,,
3722.476062,0.101527,,,,,
3720.547318,0.101437,,,,,
3718.618573,0.101276,,,,,
3716.689829,0.101245,,,,,
3714.761085,0.101408,,,,,
3712.832341,0.101379,,,,,
3710.903597,0.101047,,,,,
3708.974853,0.100752,,,,,
3707.046109,0.100619,,,,,
3705.117365,0.100611,,,,,
3703.188621,0.100704,,,,,
3701.259877,0.100786,,,,,
3699.331133,0.100901,,,,,
3697.402389,0.101092,,,,,
3695.473645,0.101057,,,,,
3693.5449,0.100726,,,,,
3691.616156,0.1005,,,,,
3689.687412,0.100393,,,,,
3687.758668,0.100056,,,,,
3685.829924,0.099652,,,,,
3683.90118,0.099475,,,,,
3681.972436,0.099438,,,,,
3680.043692,0.099453,,,,,
3678.114948,0.099556,,,,,
3676.186204,0.099689,,,,,
3674.25746,0.099669,,,,,
3672.328716,0.099459,,,,,
3670.399972,0.099312,,,,,
3668.471228,0.099429,,,,,
3666.542483,0.099573,,,,,
3664.613739,0.099511,,,,,
3662.684995,0.09938,,,,,
3660.756251,0.099277,,,,,
3658.827507,0.099126,,,,,
3656.898763,0.098834,,,,,
3654.970019,0.098508,,,,,
3653.041275,0.098409,,,,,
3651.112531,0.098554,,,,,
3649.183787,0.098758,,,,,
3647.255043,0.098759,,,,,
3645.326299,0.098453,,,,,
3643.397555,0.098249,,,,,
3641.468811,0.098525,,,,,
3639.540066,0.098942,,,,,
3637.611322,0.099002,,,,,
3635.682578,0.098773,,,,,
3633.753834,0.09856,,,,,
3631.82509,0.098448,,,,,
3629.896346,0.098293,,,,,
3627.967602,0.098015,,,,,
3626.038858,0.097818,,,,,
3624.110114,0.097778,,,,,
3622.18137,0.097791,,,,,
3620.252626,0.097888,,,,,
3618.323882,0.098005,,,,,
3616.395138,0.09798,,,,,
3614.466393,0.097938,,,,,
3612.537649,0.098036,,,,,
3610.608905,0.098177,,,,,
3608.680161,0.098237,,,,,
3606.751417,0.098123,,,,,
3604.822673,0.097948,,,,,
3602.893929,0.09797,,,,,
3600.965185,0.098005,,,,,
3599.036441,0.097843,,,,,
3597.107697,0.097778,,,,,
3595.178953,0.097838,,,,,
3593.250209,0.09771,,,,,
3591.321465,0.097468,,,,,
3589.392721,0.097296,,,,,
3587.463976,0.097192,,,,,
3585.535232,0.097133,,,,,
3583.606488,0.097097,,,,,
3581.677744,0.097131,,,,,
3579.749,0.097161,,,,,
3577.820256,0.09707,,,,,
3575.891512,0.096995,,,,,
3573.962768,0.096947,,,,,
3572.034024,0.096766,,,,,
3570.10528,0.096497,,,,,
3568.176536,0.096252,,,,,
3566.247792,0.096103,,,,,
3564.319048,0.096041,,,,,
3562.390304,0.095987,,,,,
3560.461559,0.095921,,,,,
3558.532815,0.095789,,,,,
3556.604071,0.095658,,,,,
3554.675327,0.095693,,,,,
3552.746583,0.095759,,,,,
3550.817839,0.095674,,,,,
3548.889095,0.09551,,,,,
3546.960351,0.095358,,,,,
3545.031607,0.095304,,,,,
3543.102863,0.095352,,,,,
3541.174119,0.095426,,,,,
3539.245375,0.095538,,,,,
3537.316631,0.095601,,,,,
3535.387886,0.095526,,,,,
3533.459142,0.095405,,,,,
3531.530398,0.095249,,,,,
3529.601654,0.095119,,,,,
3527.67291,0.095164,,,,,
3525.744166,0.095322,,,,,
3523.815422,0.095448,,,,,
3521.886678,0.095496,,,,,
3519.957934,0.095525,,,,,
3518.02919,0.095467,,,,,
3516.100446,0.095256,,,,,
3514.171702,0.095088,,,,,
3512.242958,0.094921,,,,,
3510.314214,0.094634,,,,,
3508.385469,0.094578,,,,,
3506.456725,0.094821,,,,,
3504.527981,0.0949,,,,,
3502.599237,0.094813,,,,,
3500.670493,0.094787,,,,,
3498.741749,0.094737,,,,,
3496.813005,0.094754,,,,,
3494.884261,0.094856,,,,,
3492.955517,0.094795,,,,,
3491.026773,0.094588,,,,,
3489.098029,0.094309,,,,,
3487.169285,0.093988,,,,,
3485.240541,0.093861,,,,,
3483.311796,0.093864,,,,,
3481.383052,0.093636,,,,,
3479.454308,0.093326,,,,,
3477.525564,0.093225,,,,,
3475.59682,0.093189,,,,,
3473.668076,0.093044,,,,,
3471.739332,0.092789,,,,,
3469.810588,0.0926,,,,,
3467.881844,0.092584,,,,,
3465.9531,0.092562,,,,,
3464.024356,0.092455,,,,,
3462.095612,0.092336,,,,,
3460.166868,0.092192,,,,,
3458.238124,0.091984,,,,,
3456.309379,0.091725,,,,,
3454.380635,0.091465,,,,,
3452.451891,0.091298,,,,,
3450.523147,0.091274,,,,,
3448.594403,0.091257,,,,,
3446.665659,0.091144,,,,,
3444.736915,0.091046,,,,,
3442.808171,0.091019,,,,,
3440.879427,0.090959,,,,,
3438.950683,0.090846,,,,,
3437.021939,0.090786,,,,,
3435.093195,0.090755,,,,,
3433.164451,0.090717,,,,,
3431.235707,0.090762,,,,,
3429.306962,0.090836,,,,,
3427.378218,0.090853,,,,,
3425.449474,0.090974,,,,,
3423.52073,0.091195,,,,,
3421.591986,0.091256,,,,,
3419.663242,0.091185,,,,,
3417.734498,0.091165,,,,,
3415.805754,0.091252,,,,,
3413.87701,0.09148,,,,,
3411.948266,0.091715,,,,,
3410.019522,0.09178,,,,,
3408.090778,0.091811,,,,,
3406.162034,0.092033,,,,,
3404.233289,0.092369,,,,,
3402.304545,0.092533,,,,,
3400.375801,0.092413,,,,,
3398.447057,0.092205,,,,,
3396.518313,0.092171,,,,,
3394.589569,0.0923,,,,,
3392.660825,0.092412,,,,,
3390.732081,0.092428,,,,,
3388.803337,0.092316,,,,,
3386.874593,0.092152,,,,,
3384.945849,0.092144,,,,,
3383.017105,0.092316,,,,,
3381.088361,0.092501,,,,,
3379.159617,0.092605,,,,,
3377.230872,0.09265,,,,,
3375.302128,0.092671,,,,,
3373.373384,0.092685,,,,,
3371.44464,0.092716,,,,,
3369.515896,0.092832,,,,,
3367.587152,0.093002,,,,,
3365.658408,0.092971,,,,,
3363.729664,0.092682,,,,,
3361.80092,0.092485,,,,,
3359.872176,0.092509,,,,,
3357.943432,0.092525,,,,,
3356.014688,0.09239,,,,,
3354.085944,0.092249,,,,,
3352.1572,0.092335,,,,,
3350.228455,0.092523,,,,,
3348.299711,0.092584,,,,,
3346.370967,0.092586,,,,,
3344.442223,0.092541,,,,,
3342.513479,0.092459,,,,,
3340.584735,0.092526,,,,,
3338.655991,0.092677,,,,,
3336.727247,0.092668,,,,,
3334.798503,0.092484,,,,,
3332.869759,0.092252,,,,,
3330.941015,0.092071,,,,,
3329.012271,0.091844,,,,,
3327.083527,0.091489,,,,,
3325.154782,0.09129,,,,,
3323.226038,0.091415,,,,,
3321.297294,0.0916,,,,,
3319.36855,0.091578,,,,,
3317.439806,0.091337,,,,,
3315.511062,0.091079,,,,,
3313.582318,0.090977,,,,,
3311.653574,0.090953,,,,,
3309.72483,0.09088,,,,,
3307.796086,0.090865,,,,,
3305.867342,0.090995,,,,,
3303.938598,0.091074,,,,,
3302.009854,0.091043,,,,,
3300.08111,0.091074,,,,,
3298.152365,0.091043,,,,,
3296.223621,0.090839,,,,,
3294.294877,0.090754,,,,,
3292.366133,0.090925,,,,,
3290.437389,0.091184,,,,,
3288.508645,0.091438,,,,,
3286.579901,0.091634,,,,,
3284.651157,0.091718,,,,,
3282.722413,0.091749,,,,,
3280.793669,0.091843,,,,,
3278.864925,0.092032,,,,,
3276.936181,0.092228,,,,,
3275.007437,0.092319,,,,,
3273.078692,0.092284,,,,,
3271.149948,0.092273,,,,,
3269.221204,0.092474,,,,,
3267.29246,0.092793,,,,,
3265.363716,0.092939,,,,,
3263.434972,0.092868,,,,,
3261.506228,0.09295,,,,,
3259.577484,0.093429,,,,,
3257.64874,0.093925,,,,,
3255.719996,0.094017,,,,,
3253.791252,0.093812,,,,,
3251.862508,0.09365,,,,,
3249.933764,0.093686,,,,,
3248.00502,0.093733,,,,,
3246.076275,0.093651,,,,,
3244.147531,0.093616,,,,,
3242.218787,0.093692,,,,,
3240.290043,0.093788,,,,,
3238.361299,0.093807,,,,,
3236.432555,0.093727,,,,,
3234.503811,0.093766,,,,,
3232.575067,0.093924,,,,,
3230.646323,0.093943,,,,,
3228.717579,0.093933,,,,,
3226.788835,0.09406,,,,,
3224.860091,0.09417,,,,,
3222.931347,0.094141,,,,,
3221.002603,0.093967,,,,,
3219.073858,0.093802,,,,,
3217.145114,0.093803,,,,,
3215.21637,0.093763,,,,,
3213.287626,0.093593,,,,,
3211.358882,0.093554,,,,,
3209.430138,0.09365,,,,,
3207.501394,0.093684,,,,,
3205.57265,0.093648,,,,,
3203.643906,0.093578,,,,,
3201.715162,0.093421,,,,,
3199.786418,0.093253,,,,,
3197.857674,0.093267,,,,,
3195.92893,0.093412,,,,,
3194.000185,0.093514,,,,,
3192.071441,0.093589,,,,,
3190.142697,0.093648,,,,,
3188.213953,0.093631,,,,,
3186.285209,0.093644,,,,,
3184.356465,0.093813,,,,,
3182.427721,0.094015,,,,,
3180.498977,0.094058,,,,,
3178.570233,0.093933,,,,,
3176.641489,0.093767,,,,,
3174.712745,0.093669,,,,,
3172.784001,0.093635,,,,,
3170.855257,0.093677,,,,,
3168.926513,0.093854,,,,,
3166.997768,0.093985,,,,,
3165.069024,0.093902,,,,,
3163.14028,0.093833,,,,,
3161.211536,0.09394,,,,,
3159.282792,0.094084,,,,,
3157.354048,0.094213,,,,,
3155.425304,0.094291,,,,,
3153.49656,0.094218,,,,,
3151.567816,0.094097,,,,,
3149.639072,0.094136,,,,,
3147.710328,0.094312,,,,,
3145.781584,0.094437,,,,,
3143.85284,0.094478,,,,,
3141.924096,0.094519,,,,,
3139.995351,0.094554,,,,,
3138.066607,0.094632,,,,,
3136.137863,0.094707,,,,,
3134.209119,0.094607,,,,,
3132.280375,0.094469,,,,,
3130.351631,0.094486,,,,,
3128.422887,0.094489,,,,,
3126.494143,0.094366,,,,,
3124.565399,0.094286,,,,,
3122.636655,0.094361,,,,,
3120.707911,0.094542,,,,,
3118.779167,0.0947,,,,,
3116.850423,0.094673,,,,,
3114.921678,0.09452,,,,,
3112.992934,0.094503,,,,,
3111.06419,0.094622,,,,,
3109.135446,0.094571,,,,,
3107.206702,0.094336,,,,,
3105.277958,0.094166,,,,,
3103.349214,0.094077,,,,,
3101.42047,0.094002,,,,,
3099.491726,0.093969,,,,,
3097.562982,0.094,,,,,
3095.634238,0.094093,,,,,
3093.705494,0.094143,,,,,
3091.77675,0.094098,,,,,
3089.848006,0.094024,,,,,
3087.919261,0.093907,,,,,
3085.990517,0.093727,,,,,
3084.061773,0.093512,,,,,
3082.133029,0.093253,,,,,
3080.204285,0.092953,,,,,
3078.275541,0.092635,,,,,
3076.346797,0.092367,,,,,
3074.418053,0.092238,,,,,
3072.489309,0.092165,,,,,
3070.560565,0.092049,,,,,
3068.631821,0.092045,,,,,
3066.703077,0.092206,,,,,
3064.774333,0.092356,,,,,
3062.845589,0.092524,,,,,
3060.916844,0.092786,,,,,
3058.9881,0.092994,,,,,
3057.059356,0.093081,,,,,
3055.130612,0.093094,,,,,
3053.201868,0.093074,,,,,
3051.273124,0.09311,,,,,
3049.34438,0.093264,,,,,
3047.415636,0.093484,,,,,
3045.486892,0.093598,,,,,
3043.558148,0.093541,,,,,
3041.629404,0.093484,,,,,
3039.70066,0.093525,,,,,
3037.771916,0.093562,,,,,
3035.843171,0.09347,,,,,
3033.914427,0.093262,,,,,
3031.985683,0.093119,,,,,
3030.056939,0.093149,,,,,
3028.128195,0.093253,,,,,
3026.199451,0.093398,,,,,
3024.270707,0.093598,,,,,
3022.341963,0.093679,,,,,
3020.413219,0.093571,,,,,
3018.484475,0.093374,,,,,
3016.555731,0.093115,,,,,
3014.626987,0.092859,,,,,
3012.698243,0.092671,,,,,
3010.769499,0.092462,,,,,
3008.840754,0.092028,,,,,
3006.91201,0.091332,,,,,
3004.983266,0.090623,,,,,
3003.054522,0.090063,,,,,
3001.125778,0.08952,,,,,
2999.197034,0.088823,,,,,
2997.26829,0.087958,,,,,
2995.339546,0.086927,,,,,
2993.410802,0.085632,,,,,
2991.482058,0.083986,,,,,
2989.553314,0.081976,,,,,
2987.62457,0.079601,,,,,
2985.695826,0.076826,,,,,
2983.767081,0.073667,,,,,
2981.838337,0.070116,,,,,
2979.909593,0.065989,,,,,
2977.980849,0.061142,,,,,
2976.052105,0.055545,,,,,
2974.123361,0.049128,,,,,
2972.194617,0.041971,,,,,
2970.265873,0.034354,,,,,
2968.337129,0.026494,,,,,
2966.408385,0.018612,,,,,
2964.479641,0.011235,,,,,
2962.550897,0.005232,,,,,
2960.622153,0.001587,,,,,
2958.693409,0.001123,,,,,
2956.764664,0.003996,,,,,
2954.83592,0.009329,,,,,
2952.907176,0.015766,,,,,
2950.978432,0.022082,,,,,
2949.049688,0.027299,,,,,
2947.120944,0.030876,,,,,
2945.1922,0.032793,,,,,
2943.263456,0.033244,,,,,
2941.334712,0.032339,,,,,
2939.405968,0.030316,,,,,
2937.477224,0.027773,,,,,
2935.54848,0.025478,,,,,
2933.619736,0.024136,,,,,
2931.690992,0.024162,,,,,
2929.762247,0.025594,,,,,
2927.833503,0.027991,,,,,
2925.904759,0.030442,,,,,
2923.976015,0.032169,,,,,
2922.047271,0.032888,,,,,
2920.118527,0.032732,,,,,
2918.189783,0.032367,,,,,
2916.261039,0.032657,,,,,
2914.332295,0.033858,,,,,
2912.403551,0.035528,,,,,
2910.474807,0.037234,,,,,
2908.546063,0.038967,,,,,
2906.617319,0.040926,,,,,
2904.688574,0.043143,,,,,
2902.75983,0.045426,,,,,
2900.831086,0.047734,,,,,
2898.902342,0.050174,,,,,
2896.973598,0.052664,,,,,
2895.044854,0.055048,,,,,
2893.11611,0.057296,,,,,
2891.187366,0.059442,,,,,
2889.258622,0.061359,,,,,
2887.329878,0.062627,,,,,
2885.401134,0.062798,,,,,
2883.47239,0.061653,,,,,
2881.543646,0.059102,,,,,
2879.614902,0.055197,,,,,
2877.686157,0.050531,,,,,
2875.757413,0.046357,,,,,
2873.828669,0.044056,,,,,
2871.899925,0.044236,,,,,
2869.971181,0.046342,,,,,
2868.042437,0.049312,,,,,
2866.113693,0.05241,,,,,
2864.184949,0.055452,,,,,
2862.256205,0.058466,,,,,
2860.327461,0.061338,,,,,
2858.398717,0.063871,,,,,
2856.469973,0.065814,,,,,
2854.541229,0.066901,,,,,
2852.612485,0.067174,,,,,
2850.68374,0.067064,,,,,
2848.754996,0.06727,,,,,
2846.826252,0.068447,,,,,
2844.897508,0.070535,,,,,
2842.968764,0.072779,,,,,
2841.04002,0.07472,,,,,
2839.111276,0.076456,,,,,
2837.182532,0.078037,,,,,
2835.253788,0.079398,,,,,
2833.325044,0.080487,,,,,
2831.3963,0.081265,,,,,
2829.467556,0.081891,,,,,
2827.538812,0.082473,,,,,
2825.610067,0.082906,,,,,
2823.681323,0.083177,,,,,
2821.752579,0.083372,,,,,
2819.823835,0.083548,,,,,
2817.895091,0.08374,,,,,
2815.966347,0.084,,,,,
2814.037603,0.084408,,,,,
2812.108859,0.084911,,,,,
2810.180115,0.085348,,,,,
2808.251371,0.085725,,,,,
2806.322627,0.086145,,,,,
2804.393883,0.086552,,,,,
2802.465139,0.086852,,,,,
2800.536395,0.0871,,,,,
2798.60765,0.087378,,,,,
2796.678906,0.087698,,,,,
2794.750162,0.087986,,,,,
2792.821418,0.088185,,,,,
2790.892674,0.088357,,,,,
2788.96393,0.088528,,,,,
2787.035186,0.088676,,,,,
2785.106442,0.088808,,,,,
2783.177698,0.088887,,,,,
2781.248954,0.08891,,,,,
2779.32021,0.088967,,,,,
2777.391466,0.089081,,,,,
2775.462722,0.089181,,,,,
2773.533977,0.089219,,,,,
2771.605233,0.089272,,,,,
2769.676489,0.089394,,,,,
2767.747745,0.08949,,,,,
2765.819001,0.089509,,,,,
2763.890257,0.089497,,,,,
2761.961513,0.089514,,,,,
2760.032769,0.089593,,,,,
2758.104025,0.089696,,,,,
2756.175281,0.089761,,,,,
2754.246537,0.089761,,,,,
2752.317793,0.089741,,,,,
2750.389049,0.089771,,,,,
2748.460305,0.089817,,,,,
2746.53156,0.089764,,,,,
2744.602816,0.08961,,,,,
2742.674072,0.089531,,,,,
2740.745328,0.089632,,,,,
2738.816584,0.089761,,,,,
2736.88784,0.0897,,,,,
2734.959096,0.089564,,,,,
2733.030352,0.089617,,,,,
2731.101608,0.089794,,,,,
2729.172864,0.089916,,,,,
2727.24412,0.090001,,,,,
2725.315376,0.090153,,,,,
2723.386632,0.090405,,,,,
2721.457888,0.090678,,,,,
2719.529143,0.090865,,,,,
2717.600399,0.090951,,,,,
2715.671655,0.091014,,,,,
2713.742911,0.091077,,,,,
2711.814167,0.091136,,,,,
2709.885423,0.091186,,,,,
2707.956679,0.091219,,,,,
2706.027935,0.09129,,,,,
2704.099191,0.09137,,,,,
2702.170447,0.091371,,,,,
2700.241703,0.091315,,,,,
2698.312959,0.091266,,,,,
2696.384215,0.091262,,,,,
2694.45547,0.091293,,,,,
2692.526726,0.091318,,,,,
2690.597982,0.091363,,,,,
2688.669238,0.09145,,,,,
2686.740494,0.09151,,,,,
2684.81175,0.091526,,,,,
2682.883006,0.091548,,,,,
2680.954262,0.091571,,,,,
2679.025518,0.091639,,,,,
2677.096774,0.091747,,,,,
2675.16803,0.091771,,,,,
2673.239286,0.091708,,,,,
2671.310542,0.091621,,,,,
2669.381798,0.091527,,,,,
2667.453053,0.091517,,,,,
2665.524309,0.091621,,,,,
2663.595565,0.091692,,,,,
2661.666821,0.091682,,,,,
2659.738077,0.091685,,,,,
2657.809333,0.091719,,,,,
2655.880589,0.09167,,,,,
2653.951845,0.091462,,,,,
2652.023101,0.091191,,,,,
2650.094357,0.090995,,,,,
2648.165613,0.090938,,,,,
2646.236869,0.090951,,,,,
2644.308125,0.090877,,,,,
2642.379381,0.090639,,,,,
2640.450636,0.090329,,,,,
2638.521892,0.090095,,,,,
2636.593148,0.089954,,,,,
2634.664404,0.08981600000000001,,,,,
2632.73566,0.089627,,,,,
2630.806916,0.089358,,,,,
2628.878172,0.089031,,,,,
2626.949428,0.088692,,,,,
2625.020684,0.088373,,,,,
2623.09194,0.088056,,,,,
2621.163196,0.087676,,,,,
2619.234452,0.087275,,,,,
2617.305708,0.08695,,,,,
2615.376963,0.086704,,,,,
2613.448219,0.086508,,,,,
2611.519475,0.086292,,,,,
2609.590731,0.085937,,,,,
2607.661987,0.085476,,,,,
2605.733243,0.085067,,,,,
2603.804499,0.084797,,,,,
2601.875755,0.084654,,,,,
2599.947011,0.084556,,,,,
2598.018267,0.084392,,,,,
2596.089523,0.084091,,,,,
2594.160779,0.083693,,,,,
2592.232035,0.083336,,,,,
2590.303291,0.083111,,,,,
2588.374546,0.08305,,,,,
2586.445802,0.083149,,,,,
2584.517058,0.083132,,,,,
2582.588314,0.082699,,,,,
2580.65957,0.082085,,,,,
2578.730826,0.081754,,,,,
2576.802082,0.081761,,,,,
2574.873338,0.081869,,,,,
2572.944594,0.081919,,,,,
2571.01585,0.081811,,,,,
2569.087106,0.081506,,,,,
2567.158362,0.081092,,,,,
2565.229618,0.080715,,,,,
2563.300874,0.080598,,,,,
2561.372129,0.08077,,,,,
2559.443385,0.080909,,,,,
2557.514641,0.080892,,,,,
2555.585897,0.080882,,,,,
2553.657153,0.080825,,,,,
2551.728409,0.080533,,,,,
2549.799665,0.08019,,,,,
2547.870921,0.080141,,,,,
2545.942177,0.080275,,,,,
2544.013433,0.080226,,,,,
2542.084689,0.079937,,,,,
2540.155945,0.079673,,,,,
2538.227201,0.079582,,,,,
2536.298456,0.079458,,,,,
2534.369712,0.079248,,,,,
2532.440968,0.079231,,,,,
2530.512224,0.079385,,,,,
2528.58348,0.079364,,,,,
2526.654736,0.079128,,,,,
2524.725992,0.07899,,,,,
2522.797248,0.079082,,,,,
2520.868504,0.079168,,,,,
2518.93976,0.079037,,,,,
2517.011016,0.078827,,,,,
2515.082272,0.078815,,,,,
2513.153528,0.078951,,,,,
2511.224784,0.078925,,,,,
2509.296039,0.078727,,,,,
2507.367295,0.078621,,,,,
2505.438551,0.078681,,,,,
2503.509807,0.07884,,,,,
2501.581063,0.079047,,,,,
2499.652319,0.079289,,,,,
2497.723575,0.079668,,,,,
2495.794831,0.080123,,,,,
2493.866087,0.08032,,,,,
2491.937343,0.080252,,,,,
2490.008599,0.08025,,,,,
2488.079855,0.080343,,,,,
2486.151111,0.080364,,,,,
2484.222366,0.080342,,,,,
2482.293622,0.080358,,,,,
2480.364878,0.080428,,,,,
2478.436134,0.080492,,,,,
2476.50739,0.08052,,,,,
2474.578646,0.080588,,,,,
2472.649902,0.08071,,,,,
2470.721158,0.080879,,,,,
2468.792414,0.08102,,,,,
2466.86367,0.081067,,,,,
2464.934926,0.081189,,,,,
2463.006182,0.081439,,,,,
2461.077438,0.081626,,,,,
2459.148694,0.081608,,,,,
2457.219949,0.081357,,,,,
2455.291205,0.081053,,,,,
2453.362461,0.080908,,,,,
2451.433717,0.080861,,,,,
2449.504973,0.080779,,,,,
2447.576229,0.080723,,,,,
2445.647485,0.080816,,,,,
2443.718741,0.081038,,,,,
2441.789997,0.081286,,,,,
2439.861253,0.081489,,,,,
2437.932509,0.081462,,,,,
2436.003765,0.081102,,,,,
2434.075021,0.080728,,,,,
2432.146277,0.08072,,,,,
2430.217532,0.081012,,,,,
2428.288788,0.081314,,,,,
2426.360044,0.081548,,,,,
2424.4313,0.081738,,,,,
2422.502556,0.081859,,,,,
2420.573812,0.081901,,,,,
2418.645068,0.081941,,,,,
2416.716324,0.082018,,,,,
2414.78758,0.08201,,,,,
2412.858836,0.081951,,,,,
2410.930092,0.082064,,,,,
2409.001348,0.082366,,,,,
2407.072604,0.082641,,,,,
2405.143859,0.082788,,,,,
2403.215115,0.082956,,,,,
2401.286371,0.083259,,,,,
2399.357627,0.083625,,,,,
2397.428883,0.083921,,,,,
2395.500139,0.084096,,,,,
2393.571395,0.084222,,,,,
2391.642651,0.084348,,,,,
2389.713907,0.084511,,,,,
2387.785163,0.084736,,,,,
2385.856419,0.084992,,,,,
2383.927675,0.085264,,,,,
2381.998931,0.085554,,,,,
2380.070187,0.085882,,,,,
2378.141442,0.086276,,,,,
2376.212698,0.08672,,,,,
2374.283954,0.087159,,,,,
2372.35521,0.087562,,,,,
2370.426466,0.088006,,,,,
2368.497722,0.088538,,,,,
2366.568978,0.089063,,,,,
2364.640234,0.089448,,,,,
2362.71149,0.089673,,,,,
2360.782746,0.089846,,,,,
2358.854002,0.090001,,,,,
2356.925258,0.090054,,,,,
2354.996514,0.089996,,,,,
2353.06777,0.089861,,,,,
2351.139025,0.089775,,,,,
2349.210281,0.089901,,,,,
2347.281537,0.090101,,,,,
2345.352793,0.090193,,,,,
2343.424049,0.090276,,,,,
2341.495305,0.09045,,,,,
2339.566561,0.090566,,,,,
2337.637817,0.090494,,,,,
2335.709073,0.090441,,,,,
2333.780329,0.090529,,,,,
2331.851585,0.090574,,,,,
2329.922841,0.090572,,,,,
2327.994097,0.090665,,,,,
2326.065352,0.090675,,,,,
2324.136608,0.090217,,,,,
2322.207864,0.089255,,,,,
2320.27912,0.088154,,,,,
2318.350376,0.087275,,,,,
2316.421632,0.086658,,,,,
2314.492888,0.086037,,,,,
2312.564144,0.085333,,,,,
2310.6354,0.084649,,,,,
2308.706656,0.083966,,,,,
2306.777912,0.083316,,,,,
2304.849168,0.082735,,,,,
2302.920424,0.082262,,,,,
2300.99168,0.081879,,,,,
2299.062935,0.081368,,,,,
2297.134191,0.080648,,,,,
2295.205447,0.079886,,,,,
2293.276703,0.079069,,,,,
2291.347959,0.078008,,,,,
2289.419215,0.076882,,,,,
2287.490471,0.075954,,,,,
2285.561727,0.074866,,,,,
2283.632983,0.07334,,,,,
2281.704239,0.071907,,,,,
2279.775495,0.070987,,,,,
2277.846751,0.070231,,,,,
2275.918007,0.069289,,,,,
2273.989262,0.068403,,,,,
2272.060518,0.067783,,,,,
2270.131774,0.06712,,,,,
2268.20303,0.066114,,,,,
2266.274286,0.064904,,,,,
2264.345542,0.063924,,,,,
2262.416798,0.063528,,,,,
2260.488054,0.063457,,,,,
2258.55931,0.062966,,,,,
2256.630566,0.061924,,,,,
2254.701822,0.060923,,,,,
2252.773078,0.060165,,,,,
2250.844334,0.059546,,,,,
2248.91559,0.058972,,,,,
2246.986845,0.058192,,,,,
2245.058101,0.057204,,,,,
2243.129357,0.056286,,,,,
2241.200613,0.055771,,,,,
2239.271869,0.055667,,,,,
2237.343125,0.055224,,,,,
2235.414381,0.054027,,,,,
2233.485637,0.052771,,,,,
2231.556893,0.05205,,,,,
2229.628149,0.051775,,,,,
2227.699405,0.051613,,,,,
2225.770661,0.051256,,,,,
2223.841917,0.050825,,,,,
2221.913173,0.050566,,,,,
2219.984428,0.050186,,,,,
2218.055684,0.049247,,,,,
2216.12694,0.048002,,,,,
2214.198196,0.047069,,,,,
2212.269452,0.046488,,,,,
2210.340708,0.045925,,,,,
2208.411964,0.045172,,,,,
2206.48322,0.044371,,,,,
2204.554476,0.043879,,,,,
2202.625732,0.043482,,,,,
2200.696988,0.04275,,,,,
2198.768244,0.041865,,,,,
2196.8395,0.041078,,,,,
2194.910755,0.040309,,,,,
2192.982011,0.039682,,,,,
2191.053267,0.039349,,,,,
2189.124523,0.039041,,,,,
2187.195779,0.038374,,,,,
2185.267035,0.037123,,,,,
2183.338291,0.035895,,,,,
2181.409547,0.035693,,,,,
2179.480803,0.036003,,,,,
2177.552059,0.03557,,,,,
2175.623315,0.034426,,,,,
2173.694571,0.033628,,,,,
2171.765827,0.033727,,,,,
2169.837083,0.033985,,,,,
2167.908338,0.033386,,,,,
2165.979594,0.03181,,,,,
2164.05085,0.029638,,,,,
2162.122106,0.027322,,,,,
2160.193362,0.025873,,,,,
2158.264618,0.026407,,,,,
2156.335874,0.028686,,,,,
2154.40713,0.031528,,,,,
2152.478386,0.034161,,,,,
2150.549642,0.036035,,,,,
2148.620898,0.037087,,,,,
2146.692154,0.038293,,,,,
2144.76341,0.040202,,,,,
2142.834666,0.042082,,,,,
2140.905921,0.04357,,,,,
2138.977177,0.045196,,,,,
2137.048433,0.046937,,,,,
2135.119689,0.048474,,,,,
2133.190945,0.050263,,,,,
2131.262201,0.052504,,,,,
2129.333457,0.05458,,,,,
2127.404713,0.056226,,,,,
2125.475969,0.057581,,,,,
2123.547225,0.058514,,,,,
2121.618481,0.059027,,,,,
2119.689737,0.059403,,,,,
2117.760993,0.059786,,,,,
2115.832248,0.060139,,,,,
2113.903504,0.060198,,,,,
2111.97476,0.05991,,,,,
2110.046016,0.059713,,,,,
2108.117272,0.059538,,,,,
2106.188528,0.058937,,,,,
2104.259784,0.05816,,,,,
2102.33104,0.057609,,,,,
2100.402296,0.057286,,,,,
2098.473552,0.057054,,,,,
2096.544808,0.056882,,,,,
2094.616064,0.057168,,,,,
2092.68732,0.057989,,,,,
2090.758576,0.058646,,,,,
2088.829831,0.058769,,,,,
2086.901087,0.058532,,,,,
2084.972343,0.057978,,,,,
2083.043599,0.057249,,,,,
2081.114855,0.056592,,,,,
2079.186111,0.055797,,,,,
2077.257367,0.054944,,,,,
2075.328623,0.054497,,,,,
2073.399879,0.053988,,,,,
2071.471135,0.052806,,,,,
2069.542391,0.051421,,,,,
2067.613647,0.050488,,,,,
2065.684903,0.050076,,,,,
2063.756158,0.04996,,,,,
2061.827414,0.049664,,,,,
2059.89867,0.048776,,,,,
2057.969926,0.047521,,,,,
2056.041182,0.046418,,,,,
2054.112438,0.045635,,,,,
2052.183694,0.044398,,,,,
2050.25495,0.042015,,,,,
2048.326206,0.039479,,,,,
2046.397462,0.037911,,,,,
2044.468718,0.036967,,,,,
2042.539974,0.036003,,,,,
2040.61123,0.034906,,,,,
2038.682486,0.03365,,,,,
2036.753741,0.03208,,,,,
2034.824997,0.030638,,,,,
2032.896253,0.030149,,,,,
2030.967509,0.030646,,,,,
2029.038765,0.031185,,,,,
2027.110021,0.031186,,,,,
2025.181277,0.031061,,,,,
2023.252533,0.030944,,,,,
2021.323789,0.030632,,,,,
2019.395045,0.030272,,,,,
2017.466301,0.030323,,,,,
2015.537557,0.031274,,,,,
2013.608813,0.032599,,,,,
2011.680069,0.033227,,,,,
2009.751324,0.033075,,,,,
2007.82258,0.032862,,,,,
2005.893836,0.033201,,,,,
2003.965092,0.034224,,,,,
2002.036348,0.035664,,,,,
2000.107604,0.036907,,,,,
1998.17886,0.037404,,,,,
1996.250116,0.03723,,,,,
1994.321372,0.036756,,,,,
1992.392628,0.036474,,,,,
1990.463884,0.036637,,,,,
1988.53514,0.036785,,,,,
1986.606396,0.03656,,,,,
1984.677651,0.035963,,,,,
1982.748907,0.034762,,,,,
1980.820163,0.032937,,,,,
1978.891419,0.031274,,,,,
1976.962675,0.030676,,,,,
1975.033931,0.031075,,,,,
1973.105187,0.031815,,,,,
1971.176443,0.032679,,,,,
1969.247699,0.033764,,,,,
1967.318955,0.034891,,,,,
1965.390211,0.035898,,,,,
1963.461467,0.036957,,,,,
1961.532723,0.038157,,,,,
1959.603979,0.039406,,,,,
1957.675234,0.040607,,,,,
1955.74649,0.041816,,,,,
1953.817746,0.04328,,,,,
1951.889002,0.044962,,,,,
1949.960258,0.046525,,,,,
1948.031514,0.047913,,,,,
1946.10277,0.049201,,,,,
1944.174026,0.050361,,,,,
1942.245282,0.051476,,,,,
1940.316538,0.052585,,,,,
1938.387794,0.053738,,,,,
1936.45905,0.055011,,,,,
1934.530306,0.056311,,,,,
1932.601562,0.057692,,,,,
1930.672817,0.059183,,,,,
1928.744073,0.060489,,,,,
1926.815329,0.06139,,,,,
1924.886585,0.062184,,,,,
1922.957841,0.063397,,,,,
1921.029097,0.064706,,,,,
1919.100353,0.065331,,,,,
1917.171609,0.065562,,,,,
1915.242865,0.066135,,,,,
1913.314121,0.066947,,,,,
1911.385377,0.067719,,,,,
1909.456633,0.068482,,,,,
1907.527889,0.069174,,,,,
1905.599144,0.069779,,,,,
1903.6704,0.070453,,,,,
1901.741656,0.071209,,,,,
1899.812912,0.071889,,,,,
1897.884168,0.072395,,,,,
1895.955424,0.072838,,,,,
1894.02668,0.073409,,,,,
1892.097936,0.074061,,,,,
1890.169192,0.074665,,,,,
1888.240448,0.075269,,,,,
1886.311704,0.075848,,,,,
1884.38296,0.076391,,,,,
1882.454216,0.077012,,,,,
1880.525472,0.077641,,,,,
1878.596727,0.078139,,,,,
1876.667983,0.078514,,,,,
1874.739239,0.078746,,,,,
1872.810495,0.078859,,,,,
1870.881751,0.079211,,,,,
1868.953007,0.080018,,,,,
1867.024263,0.080797,,,,,
1865.095519,0.08121,,,,,
1863.166775,0.081572,,,,,
1861.238031,0.081999,,,,,
1859.309287,0.082356,,,,,
1857.380543,0.082695,,,,,
1855.451799,0.083119,,,,,
1853.523055,0.083606,,,,,
1851.59431,0.084041,,,,,
1849.665566,0.084432,,,,,
1847.736822,0.084924,,,,,
1845.808078,0.085512,,,,,
1843.879334,0.085996,,,,,
1841.95059,0.086311,,,,,
1840.021846,0.086696,,,,,
1838.093102,0.087262,,,,,
1836.164358,0.087798,,,,,
1834.235614,0.08818,,,,,
1832.30687,0.08849,,,,,
1830.378126,0.088858,,,,,
1828.449382,0.089383,,,,,
1826.520637,0.089962,,,,,
1824.591893,0.090383,,,,,
1822.663149,0.090637,,,,,
1820.734405,0.090946,,,,,
1818.805661,0.091519,,,,,
1816.876917,0.092335,,,,,
1814.948173,0.093171,,,,,
1813.019429,0.09383,,,,,
1811.090685,0.094275,,,,,
1809.161941,0.094593,,,,,
1807.233197,0.094829,,,,,
1805.304453,0.094833,,,,,
1803.375709,0.094516,,,,,
1801.446965,0.094129,,,,,
1799.51822,0.093913,,,,,
1797.589476,0.093885,,,,,
1795.660732,0.094024,,,,,
1793.731988,0.094393,,,,,
1791.803244,0.095069,,,,,
1789.8745,0.095844,,,,,
1787.945756,0.09641,,,,,
1786.017012,0.096782,,,,,
1784.088268,0.097076,,,,,
1782.159524,0.097234,,,,,
1780.23078,0.097195,,,,,
1778.302036,0.09708,,,,,
1776.373292,0.097061,,,,,
1774.444547,0.097149,,,,,
1772.515803,0.097165,,,,,
1770.587059,0.096967,,,,,
1768.658315,0.096596,,,,,
1766.729571,0.096181,,,,,
1764.800827,0.095802,,,,,
1762.872083,0.095297,,,,,
1760.943339,0.094481,,,,,
1759.014595,0.093343,,,,,
1757.085851,0.091723,,,,,
1755.157107,0.089336,,,,,
1753.228363,0.085825,,,,,
1751.299619,0.080633,,,,,
1749.370875,0.073202,,,,,
1747.44213,0.063098,,,,,
1745.513386,0.049888,,,,,
1743.584642,0.03339,,,,,
1741.655898,0.013702,,,,,
1739.727154,-0.008768,,,,,
1737.79841,-0.032504,,,,,
1735.869666,-0.056963,,,,,
1733.940922,-0.083101,,,,,
1732.012178,-0.109429,,,,,
1730.083434,-0.134285,,,,,
1728.15469,-0.15819,,,,,
1726.225946,-0.180784,,,,,
1724.297202,-0.200765,,,,,
1722.368458,-0.216315,,,,,
1720.439713,-0.225193,,,,,
1718.510969,-0.225366,,,,,
1716.582225,-0.215137,,,,,
1714.653481,-0.194632,,,,,
1712.724737,-0.166248,,,,,
1710.795993,-0.133362,,,,,
1708.867249,-0.099797,,,,,
1706.938505,-0.068525,,,,,
1705.009761,-0.041583,,,,,
1703.081017,-0.019908,,,,,
1701.152273,-0.00245,,,,,
1699.223529,0.01141,,,,,
1697.294785,0.021766,,,,,
1695.36604,0.029556,,,,,
1693.437296,0.035304,,,,,
1691.508552,0.039559,,,,,
1689.579808,0.042969,,,,,
1687.651064,0.045721,,,,,
1685.72232,0.048036,,,,,
1683.793576,0.05006,,,,,
1681.864832,0.051836,,,,,
1679.936088,0.053637,,,,,
1678.007344,0.055649,,,,,
1676.0786,0.057864,,,,,
1674.149856,0.060229,,,,,
1672.221112,0.062561,,,,,
1670.292368,0.064726,,,,,
1668.363623,0.066682,,,,,
1666.434879,0.068356,,,,,
1664.506135,0.069797,,,,,
1662.577391,0.071048,,,,,
1660.648647,0.072077,,,,,
1658.719903,0.072966,,,,,
1656.791159,0.073828,,,,,
1654.862415,0.074719,,,,,
1652.933671,0.07557,,,,,
1651.004927,0.076172,,,,,
1649.076183,0.076541,,,,,
1647.147439,0.076839,,,,,
1645.218695,0.077085,,,,,
1643.289951,0.077311,,,,,
1641.361206,0.077635,,,,,
1639.432462,0.078077,,,,,
1637.503718,0.078599,,,,,
1635.574974,0.07919,,,,,
1633.64623,0.079771,,,,,
1631.717486,0.080237,,,,,
1629.788742,0.080621,,,,,
1627.859998,0.08105,,,,,
1625.931254,0.081597,,,,,
1624.00251,0.082221,,,,,
1622.073766,0.082852,,,,,
1620.145022,0.083457,,,,,
1618.216278,0.084062,,,,,
1616.287533,0.084637,,,,,
1614.358789,0.08504,,,,,
1612.430045,0.085189,,,,,
1610.501301,0.084967,,,,,
1608.572557,0.08394,,,,,
1606.643813,0.081354,,,,,
1604.715069,0.076761,,,,,
1602.786325,0.071027,,,,,
1600.857581,0.066508,,,,,
1598.928837,0.065525,,,,,
1597.000093,0.068422,,,,,
1595.071349,0.073372,,,,,
1593.142605,0.078047,,,,,
1591.213861,0.081116,,,,,
1589.285116,0.082264,,,,,
1587.356372,0.081376,,,,,
1585.427628,0.078213,,,,,
1583.498884,0.07314,,,,,
1581.57014,0.068159,,,,,
1579.641396,0.066267,,,,,
1577.712652,0.068822,,,,,
1575.783908,0.074173,,,,,
1573.855164,0.07919,,,,,
1571.92642,0.08247,,,,,
1569.997676,0.084473,,,,,
1568.068932,0.085745,,,,,
1566.140188,0.086537,,,,,
1564.211443,0.087032,,,,,
1562.282699,0.08741,,,,,
1560.353955,0.08774,,,,,
1558.425211,0.087819,,,,,
1556.496467,0.087535,,,,,
1554.567723,0.087087,,,,,
1552.638979,0.086529,,,,,
1550.710235,0.085759,,,,,
1548.781491,0.084701,,,,,
1546.852747,0.083287,,,,,
1544.924003,0.081504,,,,,
1542.995259,0.079469,,,,,
1541.066515,0.077491,,,,,
1539.137771,0.07617,,,,,
1537.209026,0.075956,,,,,
1535.280282,0.076588,,,,,
1533.351538,0.077441,,,,,
1531.422794,0.078006,,,,,
1529.49405,0.078199,,,,,
1527.565306,0.07814,,,,,
1525.636562,0.07787,,,,,
1523.707818,0.077406,,,,,
1521.779074,0.076818,,,,,
1519.85033,0.076208,,,,,
1517.921586,0.075539,,,,,
1515.992842,0.074707,,,,,
1514.064098,0.073752,,,,,
1512.135354,0.072779,,,,,
1510.206609,0.071834,,,,,
1508.277865,0.070794,,,,,
1506.349121,0.069497,,,,,
1504.420377,0.068037,,,,,
1502.491633,0.066505,,,,,
1500.562889,0.064758,,,,,
1498.634145,0.062644,,,,,
1496.705401,0.059899,,,,,
1494.776657,0.056118,,,,,
1492.847913,0.051126,,,,,
1490.919169,0.045364,,,,,
1488.990425,0.040299,,,,,
1487.061681,0.037504,,,,,
1485.132936,0.036852,,,,,
1483.204192,0.036698,,,,,
1481.275448,0.035447,,,,,
1479.346704,0.032299,,,,,
1477.41796,0.027148,,,,,
1475.489216,0.020567,,,,,
1473.560472,0.013404,,,,,
1471.631728,0.00611,,,,,
1469.702984,-0.001214,,,,,
1467.77424,-0.00818,,,,,
1465.845496,-0.013716,,,,,
1463.916752,-0.016969,,,,,
1461.988008,-0.018504,,,,,
1460.059264,-0.019581,,,,,
1458.130519,-0.020703,,,,,
1456.201775,-0.021471,,,,,
1454.273031,-0.021946,,,,,
1452.344287,-0.02338,,,,,
1450.415543,-0.026497,,,,,
1448.486799,-0.029648,,,,,
1446.558055,-0.030135,,,,,
1444.629311,-0.028025,,,,,
1442.700567,-0.026563,,,,,
1440.771823,-0.028538,,,,,
1438.843079,-0.034375,,,,,
1436.914335,-0.042706,,,,,
1434.985591,-0.050515,,,,,
1433.056847,-0.055303,,,,,
1431.128102,-0.057806,,,,,
1429.199358,-0.060679,,,,,
1427.270614,-0.064512,,,,,
1425.34187,-0.066334,,,,,
1423.413126,-0.063987,,,,,
1421.484382,-0.059154,,,,,
1419.555638,-0.054234,,,,,
1417.626894,-0.049931,,,,,
1415.69815,-0.045866,,,,,
1413.769406,-0.041305,,,,,
1411.840662,-0.035771,,,,,
1409.911918,-0.029444,,,,,
1407.983174,-0.022987,,,,,
1406.054429,-0.017091,,,,,
1404.125685,-0.012304,,,,,
1402.196941,-0.009033,,,,,
1400.268197,-0.00738,,,,,
1398.339453,-0.007129,,,,,
1396.410709,-0.008023,,,,,
1394.481965,-0.009966,,,,,
1392.553221,-0.012754,,,,,
1390.624477,-0.016028,,,,,
1388.695733,-0.019446,,,,,
1386.766989,-0.022456,,,,,
1384.838245,-0.024212,,,,,
1382.909501,-0.023917,,,,,
1380.980757,-0.020939,,,,,
1379.052012,-0.015077,,,,,
1377.123268,-0.007342,,,,,
1375.194524,0.000156,,,,,
1373.26578,0.005795,,,,,
1371.337036,0.009799,,,,,
1369.408292,0.013607,,,,,
1367.479548,0.017866,,,,,
1365.550804,0.021794,,,,,
1363.62206,0.024335,,,,,
1361.693316,0.025041,,,,,
1359.764572,0.024179,,,,,
1357.835828,0.02267,,,,,
1355.907084,0.021932,,,,,
1353.97834,0.023192,,,,,
1352.049595,0.026521,,,,,
1350.120851,0.030731,,,,,
1348.192107,0.034272,,,,,
1346.263363,0.03594,,,,,
1344.334619,0.035116,,,,,
1342.405875,0.032047,,,,,
1340.477131,0.027874,,,,,
1338.548387,0.024,,,,,
1336.619643,0.021303,,,,,
1334.690899,0.019704,,,,,
1332.762155,0.01821,,,,,
1330.833411,0.015739,,,,,
1328.904667,0.012341,,,,,
1326.975922,0.009625,,,,,
1325.047178,0.009696,,,,,
1323.118434,0.013084,,,,,
1321.18969,0.017949,,,,,
1319.260946,0.021753,,,,,
1317.332202,0.023067,,,,,
1315.403458,0.021493,,,,,
1313.474714,0.016881,,,,,
1311.54597,0.009294,,,,,
1309.617226,-0.0006,,,,,
1307.688482,-0.011711,,,,,
1305.759738,-0.023553,,,,,
1303.830994,-0.036753,,,,,
1301.90225,-0.052121,,,,,
1299.973505,-0.06994,,,,,
1298.044761,-0.090576,,,,,
1296.116017,-0.114835,,,,,
1294.187273,-0.142995,,,,,
1292.258529,-0.173508,,,,,
1290.329785,-0.20285,,,,,
1288.401041,-0.227323,,,,,
1286.472297,-0.245522,,,,,
1284.543553,-0.258787,,,,,
1282.614809,-0.269246,,,,,
1280.686065,-0.277803,,,,,
1278.757321,-0.283757,,,,,
1276.828577,-0.285662,,,,,
1274.899832,-0.282648,,,,,
1272.971088,-0.275439,,,,,
1271.042344,-0.266464,,,,,
1269.1136,-0.258858,,,,,
1267.184856,-0.254771,,,,,
1265.256112,-0.254338,,,,,
1263.327368,-0.256111,,,,,
1261.398624,-0.258361,,,,,
1259.46988,-0.259968,,,,,
1257.541136,-0.260092,,,,,
1255.612392,-0.257375,,,,,
1253.683648,-0.250353,,,,,
1251.754904,-0.239041,,,,,
1249.82616,-0.225399,,,,,
1247.897415,-0.211731,,,,,
1245.968671,-0.198879,,,,,
1244.039927,-0.186181,,,,,
1242.111183,-0.172716,,,,,
1240.182439,-0.15828,,,,,
1238.253695,-0.143481,,,,,
1236.324951,-0.129228,,,,,
1234.396207,-0.116337,,,,,
1232.467463,-0.105064,,,,,
1230.538719,-0.094588,,,,,
1228.609975,-0.083487,,,,,
1226.681231,-0.070902,,,,,
1224.752487,-0.057192,,,,,
1222.823743,-0.043704,,,,,
1220.894998,-0.031903,,,,,
1218.966254,-0.022531,,,,,
1217.03751,-0.015481,,,,,
1215.108766,-0.010255,,,,,
1213.180022,-0.006344,,,,,
1211.251278,-0.00333,,,,,
1209.322534,-0.00098,,,,,
1207.39379,0.000701,,,,,
1205.465046,0.001762,,,,,
1203.536302,0.002439,,,,,
1201.607558,0.002917,,,,,
1199.678814,0.003362,,,,,
1197.75007,0.004061,,,,,
1195.821325,0.005291,,,,,
1193.892581,0.007134,,,,,
1191.963837,0.009531,,,,,
1190.035093,0.012515,,,,,
1188.106349,0.016095,,,,,
1186.177605,0.019945,,,,,
1184.248861,0.023575,,,,,
1182.320117,0.026661,,,,,
1180.391373,0.029019,,,,,
1178.462629,0.030461,,,,,
1176.533885,0.03085,,,,,
1174.605141,0.030233,,,,,
1172.676397,0.028918,,,,,
1170.747653,0.027348,,,,,
1168.818908,0.025754,,,,,
1166.890164,0.024132,,,,,
1164.96142,0.022784,,,,,
1163.032676,0.022122,,,,,
1161.103932,0.021584,,,,,
1159.175188,0.019817,,,,,
1157.246444,0.016163,,,,,
1155.3177,0.011188,,,,,
1153.388956,0.00575,,,,,
1151.460212,8.8e-05,,,,,
1149.531468,-0.006485,,,,,
1147.602724,-0.015505,,,,,
1145.67398,-0.028447,,,,,
1143.745236,-0.045352,,,,,
1141.816491,-0.064311,,,,,
1139.887747,-0.08225,,,,,
1137.959003,-0.09658,,,,,
1136.030259,-0.106561,,,,,
1134.101515,-0.113492,,,,,
1132.172771,-0.119646,,,,,
1130.244027,-0.12691,,,,,
1128.315283,-0.136333,,,,,
1126.386539,-0.148259,,,,,
1124.457795,-0.161951,,,,,
1122.529051,-0.174768,,,,,
1120.600307,-0.182601,,,,,
1118.671563,-0.181902,,,,,
1116.742818,-0.171126,,,,,
1114.814074,-0.151133,,,,,
1112.88533,-0.125293,,,,,
1110.956586,-0.0984,,,,,
1109.027842,-0.074502,,,,,
1107.099098,-0.055405,,,,,
1105.170354,-0.040872,,,,,
1103.24161,-0.029798,,,,,
1101.312866,-0.021063,,,,,
1099.384122,-0.013918,,,,,
1097.455378,-0.007982,,,,,
1095.526634,-0.002969,,,,,
1093.59789,0.001197,,,,,
1091.669146,0.00429,,,,,
1089.740401,0.005992,,,,,
1087.811657,0.005613,,,,,
1085.882913,0.001393,,,,,
1083.954169,-0.009922,,,,,
1082.025425,-0.032078,,,,,
1080.096681,-0.066293,,,,,
1078.167937,-0.108453,,,,,
1076.239193,-0.149289,,,,,
1074.310449,-0.177717,,,,,
1072.381705,-0.186179,,,,,
1070.452961,-0.175176,,,,,
1068.524217,-0.15215,,,,,
1066.595473,-0.1257,,,,,
1064.666728,-0.101712,,,,,
1062.737984,-0.082773,,,,,
1060.80924,-0.068514,,,,,
1058.880496,-0.056766,,,,,
1056.951752,-0.04546,,,,,
1055.023008,-0.033779,,,,,
1053.094264,-0.022119,,,,,
1051.16552,-0.011472,,,,,
1049.236776,-0.002959,,,,,
1047.308032,0.002014,,,,,
1045.379288,0.001662,,,,,
1043.450544,-0.004982,,,,,
1041.5218,-0.015605,,,,,
1039.593056,-0.023804,,,,,
1037.664311,-0.023534,,,,,
1035.735567,-0.014908,,,,,
1033.806823,-0.003097,,,,,
1031.878079,0.007289,,,,,
1029.949335,0.014713,,,,,
1028.020591,0.019576,,,,,
1026.091847,0.022463,,,,,
1024.163103,0.023528,,,,,
1022.234359,0.022996,,,,,
1020.305615,0.021618,,,,,
1018.376871,0.020441,,,,,
1016.448127,0.020285,,,,,
1014.519383,0.021552,,,,,
1012.590639,0.024138,,,,,
1010.661894,0.027446,,,,,
1008.73315,0.030757,,,,,
1006.804406,0.033464,,,,,
1004.875662,0.035111,,,,,
1002.946918,0.035547,,,,,
1001.018174,0.034884,,,,,
999.08943,0.033217,,,,,
997.160686,0.030696,,,,,
995.231942,0.027864,,,,,
993.303198,0.025506,,,,,
991.374454,0.02426,,,,,
989.44571,0.024397,,,,,
987.516966,0.025565,,,,,
985.588221,0.026924,,,,,
983.659477,0.027666,,,,,
981.730733,0.027267,,,,,
979.801989,0.025576,,,,,
977.873245,0.022663,,,,,
975.944501,0.018365,,,,,
974.015757,0.012436,,,,,
972.087013,0.004999,,,,,
970.158269,-0.003677,,,,,
968.229525,-0.013193,,,,,
966.300781,-0.022511,,,,,
964.372037,-0.03003,,,,,
962.443293,-0.034446,,,,,
960.514549,-0.035475,,,,,
958.585804,-0.033673,,,,,
956.65706,-0.029895,,,,,
954.728316,-0.025261,,,,,
952.799572,-0.021044,,,,,
950.870828,-0.018203,,,,,
948.942084,-0.017261,,,,,
947.01334,-0.018489,,,,,
945.084596,-0.021519,,,,,
943.155852,-0.02479,,,,,
941.227108,-0.026297,,,,,
939.298364,-0.025064,,,,,
937.36962,-0.021489,,,,,
935.440876,-0.016621,,,,,
933.512132,-0.011402,,,,,
931.583387,-0.006155,,,,,
929.654643,-0.000597,,,,,
927.725899,0.0055,,,,,
925.797155,0.011881,,,,,
923.868411,0.01803,,,,,
921.939667,0.023499,,,,,
920.010923,0.028079,,,,,
918.082179,0.03185,,,,,
916.153435,0.035095,,,,,
914.224691,0.037986,,,,,
912.295947,0.040444,,,,,
910.367203,0.042364,,,,,
908.438459,0.043821,,,,,
906.509714,0.04504,,,,,
904.58097,0.046263,,,,,
902.652226,0.047781,,,,,
900.723482,0.049792,,,,,
898.794738,0.052006,,,,,
896.865994,0.05388,,,,,
894.93725,0.055206,,,,,
893.008506,0.056173,,,,,
891.079762,0.056727,,,,,
889.151018,0.055859,,,,,
887.222274,0.051738,,,,,
885.29353,0.043476,,,,,
883.364786,0.032515,,,,,
881.436042,0.019989,,,,,
879.507297,0.00447,,,,,
877.578553,-0.014136,,,,,
875.649809,-0.030769,,,,,
873.721065,-0.038219,,,,,
871.792321,-0.033473,,,,,
869.863577,-0.020293,,,,,
867.934833,-0.005447,,,,,
866.006089,0.00668,,,,,
864.077345,0.015243,,,,,
862.148601,0.02097,,,,,
860.219857,0.02496,,,,,
858.291113,0.028203,,,,,
856.362369,0.030987,,,,,
854.433625,0.033097,,,,,
852.50488,0.034122,,,,,
850.576136,0.033029,,,,,
848.647392,0.029601,,,,,
846.718648,0.026069,,,,,
844.789904,0.024268,,,,,
842.86116,0.023737,,,,,
840.932416,0.024013,,,,,
839.003672,0.025251,,,,,
837.074928,0.02745,,,,,
835.146184,0.030439,,,,,
833.21744,0.03381,,,,,
831.288696,0.037369,,,,,
829.359952,0.041285,,,,,
827.431207,0.045467,,,,,
825.502463,0.049672,,,,,
823.573719,0.05387,,,,,
821.644975,0.057983,,,,,
819.716231,0.061842,,,,,
817.787487,0.065224,,,,,
815.858743,0.067858,,,,,
813.929999,0.069612,,,,,
812.001255,0.070416,,,,,
810.072511,0.070271,,,,,
808.143767,0.069297,,,,,
806.215023,0.067447,,,,,
804.286279,0.064472,,,,,
802.357535,0.060495,,,,,
800.42879,0.056145,,,,,
798.500046,0.052219,,,,,
796.571302,0.049506,,,,,
794.642558,0.048084,,,,,
792.713814,0.047212,,,,,
790.78507,0.046477,,,,,
788.856326,0.045986,,,,,
786.927582,0.045728,,,,,
784.998838,0.045638,,,,,
783.070094,0.045809,,,,,
781.14135,0.046254,,,,,
779.212606,0.046855,,,,,
777.283862,0.047487,,,,,
775.355117,0.048149,,,,,
773.426373,0.04899,,,,,
771.497629,0.050115,,,,,
769.568885,0.051569,,,,,
767.640141,0.053155,,,,,
765.711397,0.054225,,,,,
763.782653,0.054129,,,,,
761.853909,0.052335,,,,,
759.925165,0.048092,,,,,
757.996421,0.040664,,,,,
756.067677,0.029659,,,,,
754.138933,0.014938,,,,,
752.210189,-0.003438,,,,,
750.281445,-0.024682,,,,,
748.3527,-0.046513,,,,,
746.423956,-0.065499,,,,,
744.495212,-0.078704,,,,,
742.566468,-0.085174,,,,,
740.637724,-0.085992,,,,,
738.70898,-0.082865,,,,,
736.780236,-0.075945,,,,,
734.851492,-0.06334,,,,,
732.922748,-0.044228,,,,,
730.994004,-0.021503,,,,,
729.06526,0.000148,,,,,
727.136516,0.017639,,,,,
725.207772,0.030425,,,,,
723.279028,0.039347,,,,,
721.350283,0.045188,,,,,
719.421539,0.047564,,,,,
717.492795,0.044247,,,,,
715.564051,0.032781,,,,,
713.635307,0.015752,,,,,
711.706563,0.001061,,,,,
709.777819,-0.008638,,,,,
707.849075,-0.018101,,,,,
705.920331,-0.027716,,,,,
703.991587,-0.032204,,,,,
702.062843,-0.030149,,,,,
700.134099,-0.025596,,,,,
698.205355,-0.022473,,,,,
696.27661,-0.021794,,,,,
694.347866,-0.022304,,,,,
692.419122,-0.021922,,,,,
690.490378,-0.019207,,,,,
688.561634,-0.014267,,,,,
686.63289,-0.008467,,,,,
684.704146,-0.003178,,,,,
682.775402,0.001073,,,,,
680.846658,0.004337,,,,,
678.917914,0.007076,,,,,
676.98917,0.010067,,,,,
675.060426,0.01388,,,,,
673.131682,0.018487,,,,,
671.202938,0.023498,,,,,
669.274193,0.028822,,,,,
667.345449,0.0342,,,,,
665.416705,0.03878,,,,,
663.487961,0.042205,,,,,
661.559217,0.044427,,,,,
659.630473,0.044799,,,,,
657.701729,0.041894,,,,,
655.772985,0.033778,,,,,
653.844241,0.020648,,,,,
651.915497,0.007166,,,,,
649.986753,-0.001308,,,,,
648.058009,-0.004386,,,,,
646.129265,-0.005507,,,,,
644.200521,-0.007523,,,,,
642.271776,-0.011317,,,,,
640.343032,-0.016156,,,,,
638.414288,-0.0206,,,,,
636.485544,-0.023464,,,,,
634.5568,-0.024195,,,,,
632.628056,-0.023338,,,,,
630.699312,-0.022222,,,,,
628.770568,-0.022008,,,,,
626.841824,-0.023208,,,,,
624.91308,-0.025597,,,,,
622.984336,-0.028744,,,,,
621.055592,-0.032387,,,,,
619.126848,-0.036352,,,,,
617.198103,-0.040735,,,,,
615.269359,-0.045278,,,,,
613.340615,-0.048865,,,,,
611.411871,-0.05077,,,,,
609.483127,-0.051155,,,,,
607.554383,-0.04959,,,,,
605.625639,-0.04452,,,,,
603.696895,-0.035159,,,,,
601.768151,-0.022786,,,,,
599.839407,-0.009392,,,,,
597.910663,0.003589,,,,,
595.981919,0.014895,,,,,
594.053175,0.023595,,,,,
592.124431,0.029926,,,,,
590.195686,0.03484,,,,,
588.266942,0.039194,,,,,
586.338198,0.043331,,,,,
584.409454,0.046703,,,,,
582.48071,0.048853,,,,,
580.551966,0.049727,,,,,
578.623222,0.048924,,,,,
576.694478,0.046717,,,,,
574.765734,0.044229,,,,,
572.83699,0.041959,,,,,
570.908246,0.040049,,,,,
568.979502,0.039009,,,,,
567.050758,0.039354,,,,,
565.122013,0.041469,,,,,
563.193269,0.045123,,,,,
561.264525,0.049392,,,,,
559.335781,0.053609,,,,,
557.407037,0.057332,,,,,
555.478293,0.060169,,,,,
553.549549,0.062145,,,,,
551.620805,0.063539,,,,,
549.692061,0.06461,,,,,
547.763317,0.065459,,,,,
545.834573,0.066151,,,,,
543.905829,0.066761,,,,,
541.977085,0.06736,,,,,
540.048341,0.06821,,,,,
538.119596,0.069249,,,,,
536.190852,0.06999,,,,,
534.262108,0.070589,,,,,
532.333364,0.071751,,,,,
530.40462,0.073599,,,,,
528.475876,0.07536,,,,,
526.547132,0.076092,,,,,
524.618388,0.075858,,,,,
522.689644,0.075752,,,,,
520.7609,0.076428,,,,,
518.832156,0.077572,,,,,
516.903412,0.078692,,,,,
514.974668,0.079249,,,,,
513.045924,0.078659,,,,,
511.117179,0.07704,,,,,
509.188435,0.074838,,,,,
507.259691,0.072091,,,,,
505.330947,0.068822,,,,,
503.402203,0.065632,,,,,
501.473459,0.06376,,,,,
499.544715,0.063916,,,,,
497.615971,0.065432,,,,,
495.687227,0.067338,,,,,
493.758483,0.069012,,,,,
491.829739,0.070134,,,,,
489.900995,0.07108,,,,,
487.972251,0.072326,,,,,
486.043506,0.073552,,,,,
484.114762,0.074345,,,,,
482.186018,0.074844,,,,,
480.257274,0.075203,,,,,
478.32853,0.075484,,,,,
476.399786,0.075874,,,,,
474.471042,0.076151,,,,,
472.542298,0.07612,,,,,
470.613554,0.076336,,,,,
468.68481,0.076759,,,,,
466.756066,0.076784,,,,,
464.827322,0.0766,,,,,
462.898578,0.07651,,,,,
460.969834,0.076444,,,,,
459.041089,0.076286,,,,,
457.112345,0.075655,,,,,
455.183601,0.074316,,,,,
453.254857,0.07279,,,,,
451.326113,0.071595,,,,,
449.397369,0.070406,,,,,
447.468625,0.068699,,,,,
445.539881,0.067023,,,,,
443.611137,0.066757,,,,,
441.682393,0.067613,,,,,
439.753649,0.067858,,,,,
437.824905,0.067398,,,,,
435.896161,0.067137,,,,,
433.967417,0.067175,,,,,
432.038672,0.066819,,,,,
430.109928,0.065042,,,,,
428.181184,0.062467,,,,,
426.25244,0.061221,,,,,
424.323696,0.061758,,,,,
422.394952,0.062697,,,,,
420.466208,0.062908,,,,,
418.537464,0.062579,,,,,
416.60872,0.062535,,,,,
414.679976,0.061758,,,,,
412.751232,0.0588,,,,,
410.822488,0.055208,,,,,
408.893744,0.053204,,,,,
406.964999,0.052454,,,,,
405.036255,0.051879,,,,,
403.107511,0.051687,,,,,
401.178767,0.051787,,,,,
399.250023,0.050832,,,,,
